Wavelength	WH1059X00002.asd
350	 0.14215255954072 
351	 0.146766127965015 
352	 0.161905099986106 
353	 0.165817030483529 
354	 0.161654331392644 
355	 0.159261682742799 
356	 0.1606085464302 
357	 0.155858901295871 
358	 0.152190500960954 
359	 0.161654097654826 
360	 0.16217261890388 
361	 0.168693183601199 
362	 0.180144238919429 
363	 0.175225850483301 
364	 0.166328166006534 
365	 0.161661463060785 
366	 0.164365912893935 
367	 0.173725296894211 
368	 0.167985881354605 
369	 0.16073585224944 
370	 0.168903245331995 
371	 0.175925135122165 
372	 0.177620528459251 
373	 0.173248758291664 
374	 0.165539848716761 
375	 0.167303942921755 
376	 0.172907651730819 
377	 0.176441596114639 
378	 0.174536971889151 
379	 0.173595659825929 
380	 0.175734692207951 
381	 0.179209584800891 
382	 0.174455693760356 
383	 0.174371939604612 
384	 0.176532648162714 
385	 0.174415703428147 
386	 0.174933382016512 
387	 0.177504479919078 
388	 0.180639926410006 
389	 0.18233753790594 
390	 0.178567962456974 
391	 0.176565578299987 
392	 0.179567081899286 
393	 0.180882349945744 
394	 0.181484867495543 
395	 0.181518104606497 
396	 0.181150189112397 
397	 0.180556335890342 
398	 0.181650951848233 
399	 0.184394231538617 
400	 0.186705476845366 
401	 0.180188501689698 
402	 0.178425299174418 
403	 0.18402358782089 
404	 0.183310466221451 
405	 0.181166923430141 
406	 0.180531399748506 
407	 0.182294530233012 
408	 0.18309155129911 
409	 0.182364542025155 
410	 0.182166356173271 
411	 0.184529301673178 
412	 0.184128128015738 
413	 0.183842078093704 
414	 0.184726270060598 
415	 0.185528481506725 
416	 0.185468921544742 
417	 0.18559732781046 
418	 0.186425064260528 
419	 0.186785871637856 
420	 0.185961569957807 
421	 0.184644287127527 
422	 0.184157424233587 
423	 0.18616956566012 
424	 0.188176684536018 
425	 0.188379018862096 
426	 0.186161482183085 
427	 0.186173336123626 
428	 0.186952947360397 
429	 0.187489555267039 
430	 0.189308596143972 
431	 0.18895015669046 
432	 0.187689147432814 
433	 0.187566572849779 
434	 0.187914325992017 
435	 0.188367913485681 
436	 0.188789433035307 
437	 0.189152590556288 
438	 0.188884700097996 
439	 0.188871459750391 
440	 0.189464392879097 
441	 0.190029718271239 
442	 0.189411221969347 
443	 0.189115638912214 
444	 0.190365013276571 
445	 0.190937238490601 
446	 0.190774707945425 
447	 0.190494163292441 
448	 0.190936737936615 
449	 0.191145352279393 
450	 0.191174668579661 
451	 0.191281691684513 
452	 0.191845496606386 
453	 0.192263633836789 
454	 0.192304601809954 
455	 0.192029837568014 
456	 0.192027228538613 
457	 0.192309483861423 
458	 0.192708450825932 
459	 0.19293630217203 
460	 0.19269102218815 
461	 0.192347155778254 
462	 0.192318499313635 
463	 0.192979612166286 
464	 0.192924765392791 
465	 0.192736135101379 
466	 0.193111851336799 
467	 0.192957059919529 
468	 0.193279866049785 
469	 0.193735750349493 
470	 0.193258042515382 
471	 0.193080925247866 
472	 0.193285605890975 
473	 0.193619906186803 
474	 0.193556587289568 
475	 0.193391655706031 
476	 0.193382001659702 
477	 0.193616685308624 
478	 0.193554701252853 
479	 0.193672691594663 
480	 0.193890855627969 
481	 0.193789263369848 
482	 0.194095386990744 
483	 0.194263262474484 
484	 0.194023134666664 
485	 0.19389926839633 
486	 0.193766198127396 
487	 0.193832047852167 
488	 0.194224244857884 
489	 0.194331197710881 
490	 0.194498583866583 
491	 0.194661106355026 
492	 0.194445587846587 
493	 0.194322972580286 
494	 0.19455763173174 
495	 0.195003520651402 
496	 0.194731766578547 
497	 0.194765432265526 
498	 0.195039309268729 
499	 0.195150912872834 
500	 0.195104943065017 
501	 0.195047236841867 
502	 0.195046942887328 
503	 0.195097458177742 
504	 0.195381430553768 
505	 0.195731871651308 
506	 0.196010130561236 
507	 0.196329469249159 
508	 0.196376082546374 
509	 0.196218044014142 
510	 0.196083488775959 
511	 0.196035383389783 
512	 0.196119602045052 
513	 0.196376741094542 
514	 0.196833486288011 
515	 0.196866404324611 
516	 0.196624734322913 
517	 0.19646224575343 
518	 0.196811627878603 
519	 0.196983387336181 
520	 0.196900658061036 
521	 0.196856029720862 
522	 0.197346824555708 
523	 0.197644373229298 
524	 0.197523735130746 
525	 0.197572332908993 
526	 0.19762841803301 
527	 0.197647788236932 
528	 0.197656753570844 
529	 0.197855374338657 
530	 0.198080080668272 
531	 0.198195261315295 
532	 0.198141852453353 
533	 0.198388362075872 
534	 0.198623171041565 
535	 0.198661701039902 
536	 0.198692263363809 
537	 0.198874113629491 
538	 0.198932898819705 
539	 0.198660067887367 
540	 0.198754353945393 
541	 0.198978693057 
542	 0.199180829023294 
543	 0.199312521925186 
544	 0.199305603180485 
545	 0.199331748305229 
546	 0.199495303879103 
547	 0.199697017221326 
548	 0.199719118484243 
549	 0.19970083948378 
550	 0.199854264958475 
551	 0.199909050506391 
552	 0.199828749309437 
553	 0.199733407738355 
554	 0.199875952677872 
555	 0.199763590201153 
556	 0.199638682080328 
557	 0.199698903331598 
558	 0.199531596189372 
559	 0.19942191557704 
560	 0.199427259689463 
561	 0.199472804144023 
562	 0.199475190254296 
563	 0.19960070910842 
564	 0.199811225133198 
565	 0.199729966375899 
566	 0.199750689270065 
567	 0.199881321105566 
568	 0.200010836726716 
569	 0.200005005509396 
570	 0.200151640188646 
571	 0.200330166902465 
572	 0.200158866980233 
573	 0.2001573380932 
574	 0.200168560890387 
575	 0.200083276603735 
576	 0.200097898618863 
577	 0.200202628823891 
578	 0.200361404480307 
579	 0.200521654806764 
580	 0.200662760095312 
581	 0.200762692719514 
582	 0.200779349480592 
583	 0.200655155859628 
584	 0.200431945722215 
585	 0.200470300872672 
586	 0.200872104719492 
587	 0.200892466770923 
588	 0.200815843702593 
589	 0.200792456937993 
590	 0.200840791563541 
591	 0.200450388013577 
592	 0.200038686379661 
593	 0.19982230709906 
594	 0.19962886129893 
595	 0.199386564689577 
596	 0.199274249217866 
597	 0.199391388554598 
598	 0.199314229499746 
599	 0.199185028585505 
600	 0.199069752659718 
601	 0.198971971272626 
602	 0.198842555146263 
603	 0.19873392192608 
604	 0.198649735743601 
605	 0.198467023194601 
606	 0.198413200480824 
607	 0.198373713635144 
608	 0.198189604096159 
609	 0.198099680059543 
610	 0.198008257252518 
611	 0.197886548686603 
612	 0.197787945994997 
613	 0.197859220126727 
614	 0.197866363073157 
615	 0.197686250271453 
616	 0.197663676142866 
617	 0.197541180186579 
618	 0.197358391666986 
619	 0.197278424304686 
620	 0.197349205326443 
621	 0.197296272932862 
622	 0.197089730824539 
623	 0.197033895983787 
624	 0.196973904160496 
625	 0.196840287525094 
626	 0.196644448244618 
627	 0.196598417076919 
628	 0.196541275384698 
629	 0.19644593114157 
630	 0.196369422813917 
631	 0.196298102109919 
632	 0.196219444516117 
633	 0.196126239317615 
634	 0.196014580249302 
635	 0.19603623847121 
636	 0.196026334604105 
637	 0.195817854692626 
638	 0.195693742036507 
639	 0.195657959836135 
640	 0.195652124973614 
641	 0.195578343788762 
642	 0.195459173659422 
643	 0.195421777744333 
644	 0.195479536111028 
645	 0.195356791983481 
646	 0.1952029227729 
647	 0.195111141575961 
648	 0.195108205983353 
649	 0.194945042867717 
650	 0.194807139638941 
651	 0.194786492887772 
652	 0.194839466686877 
653	 0.194856475860547 
654	 0.194822701249561 
655	 0.194741684017477 
656	 0.194582535821358 
657	 0.194489598465915 
658	 0.194424744333336 
659	 0.194297136499847 
660	 0.194378604816744 
661	 0.194390153886554 
662	 0.194242324300916 
663	 0.194157184365188 
664	 0.194079602671444 
665	 0.194006878679098 
666	 0.193952920350744 
667	 0.193966502742507 
668	 0.193941152227953 
669	 0.193849916480595 
670	 0.193730223951752 
671	 0.19370052463978 
672	 0.193587177769835 
673	 0.193410010876866 
674	 0.193557609710893 
675	 0.193538394025761 
676	 0.193414165929651 
677	 0.193360382915907 
678	 0.19330368907792 
679	 0.193172575153485 
680	 0.193105232241994 
681	 0.193331471626666 
682	 0.193238607350166 
683	 0.193087562669748 
684	 0.193091427708954 
685	 0.193133042406153 
686	 0.193128262137652 
687	 0.193042525259963 
688	 0.192902527662387 
689	 0.192885674926138 
690	 0.192887276822404 
691	 0.192874446421179 
692	 0.192883338387479 
693	 0.192868515158146 
694	 0.19283161348844 
695	 0.19280054521457 
696	 0.192849373365185 
697	 0.192845957847368 
698	 0.192798151269599 
699	 0.192761333616917 
700	 0.192730191247806 
701	 0.192735704240701 
702	 0.192765271334743 
703	 0.192763851323477 
704	 0.19268957976139 
705	 0.192598711141823 
706	 0.192546159436637 
707	 0.192533972061598 
708	 0.192602942434357 
709	 0.192668373580595 
710	 0.192617626025345 
711	 0.192472110943059 
712	 0.192454615965976 
713	 0.192559482472967 
714	 0.192550012338764 
715	 0.192530805575186 
716	 0.19249786908357 
717	 0.192448530406788 
718	 0.192423024332591 
719	 0.192427676415297 
720	 0.192441687537824 
721	 0.192439406334882 
722	 0.192449115989612 
723	 0.192453070387033 
724	 0.192444585989439 
725	 0.192430421800627 
726	 0.192382152785921 
727	 0.19239510755049 
728	 0.192469010182399 
729	 0.192297464518517 
730	 0.192292753835297 
731	 0.192345383380203 
732	 0.192218380108078 
733	 0.192233083220064 
734	 0.192268262901992 
735	 0.192236473443957 
736	 0.192123119883124 
737	 0.19213838671122 
738	 0.192200490463145 
739	 0.192212269266203 
740	 0.192169351769715 
741	 0.192121515088149 
742	 0.19213114721549 
743	 0.192218050402155 
744	 0.192181809732306 
745	 0.19211599380166 
746	 0.192097202995675 
747	 0.192157594902544 
748	 0.19212811791242 
749	 0.192096432452106 
750	 0.19211207745242 
751	 0.192057399338275 
752	 0.191988580299633 
753	 0.191973971212835 
754	 0.192035633757644 
755	 0.191969413518528 
756	 0.191938134946638 
757	 0.191977151159102 
758	 0.192009117679402 
759	 0.191983179350118 
760	 0.191941236701312 
761	 0.191910343295542 
762	 0.191864446539059 
763	 0.19188520399691 
764	 0.191904071070118 
765	 0.191848244216001 
766	 0.191786327447054 
767	 0.191824245244101 
768	 0.191888367019341 
769	 0.191821600886774 
770	 0.191775996601287 
771	 0.191765869997577 
772	 0.191756975499651 
773	 0.191674771103087 
774	 0.191683773345021 
775	 0.19169596358829 
776	 0.19162522972013 
777	 0.191556361370274 
778	 0.191563578583618 
779	 0.191606839604315 
780	 0.191602200933567 
781	 0.191574312415991 
782	 0.191553986989096 
783	 0.191538257413315 
784	 0.191491261228412 
785	 0.191399537408572 
786	 0.191405147002543 
787	 0.191521196301219 
788	 0.191449982672689 
789	 0.191368529302052 
790	 0.19132554512995 
791	 0.191324991415973 
792	 0.19136769419309 
793	 0.191327656342365 
794	 0.191253399520992 
795	 0.191282772861353 
796	 0.191200212841242 
797	 0.191143323930448 
798	 0.191183168749143 
799	 0.191245905110299 
800	 0.191184335511557 
801	 0.191098896147032 
802	 0.191083571433342 
803	 0.191037188103666 
804	 0.191051590381483 
805	 0.191072777942467 
806	 0.191018368851578 
807	 0.191001900977191 
808	 0.190940832395273 
809	 0.190851646826404 
810	 0.190833877033679 
811	 0.190856800177534 
812	 0.19085831021619 
813	 0.190812761023783 
814	 0.190759014358373 
815	 0.190739964493358 
816	 0.190720702687468 
817	 0.190668015114587 
818	 0.190617276547754 
819	 0.190631766125092 
820	 0.190629835594494 
821	 0.190512002806551 
822	 0.190487669054247 
823	 0.190508153369231 
824	 0.190494237198418 
825	 0.19037814782832 
826	 0.190367930560395 
827	 0.190390593976923 
828	 0.190367363057839 
829	 0.190284273882895 
830	 0.190183437628765 
831	 0.190120450120622 
832	 0.19011594135839 
833	 0.190083481802295 
834	 0.190097331017324 
835	 0.190094011174466 
836	 0.189996018032568 
837	 0.189968987508963 
838	 0.189997233469126 
839	 0.189995033568598 
840	 0.189860747627169 
841	 0.189802118870932 
842	 0.189812531292002 
843	 0.189827144960266 
844	 0.189750324674748 
845	 0.189674489665969 
846	 0.18963902573081 
847	 0.189608743866459 
848	 0.189378438164597 
849	 0.189428978855821 
850	 0.18956006912303 
851	 0.189457368159209 
852	 0.189382786650775 
853	 0.189359994012747 
854	 0.189319230495271 
855	 0.189182934365261 
856	 0.18921580376554 
857	 0.189202282934206 
858	 0.189104886614883 
859	 0.189084983368963 
860	 0.18899234764456 
861	 0.188978829631055 
862	 0.189052340101936 
863	 0.18893447256426 
864	 0.188909979327186 
865	 0.188893060121181 
866	 0.18879919111029 
867	 0.188792826126555 
868	 0.188730405525282 
869	 0.188651810841473 
870	 0.188623996013254 
871	 0.188535493029551 
872	 0.188513070336602 
873	 0.188544537453469 
874	 0.18853454396517 
875	 0.188430561465705 
876	 0.188431235547925 
877	 0.188457796631374 
878	 0.188220438261966 
879	 0.188071213209091 
880	 0.188074527427 
881	 0.188138876702425 
882	 0.188041555473723 
883	 0.188028748754512 
884	 0.187960866841652 
885	 0.187785283192681 
886	 0.187779165434887 
887	 0.187708194476822 
888	 0.18766095786548 
889	 0.187723360754312 
890	 0.18769546831164 
891	 0.187634747711758 
892	 0.187557408526273 
893	 0.187467475941514 
894	 0.187367263946136 
895	 0.187319454673311 
896	 0.18727336497156 
897	 0.187158189135954 
898	 0.187227528681886 
899	 0.187205033506885 
900	 0.187091201836063 
901	 0.187112687464732 
902	 0.18704114725875 
903	 0.186995516488919 
904	 0.186970931967714 
905	 0.186799228889118 
906	 0.186723107506133 
907	 0.186640302920684 
908	 0.186549606018628 
909	 0.186681466588731 
910	 0.186557154254657 
911	 0.186355809459581 
912	 0.18631357400815 
913	 0.186451185133038 
914	 0.186476349789047 
915	 0.186385772380975 
916	 0.186255417876021 
917	 0.186094824402852 
918	 0.186017959937262 
919	 0.186017735774177 
920	 0.186032677558396 
921	 0.186010361733951 
922	 0.185913284315546 
923	 0.185763837781006 
924	 0.185630712604719 
925	 0.185632593110438 
926	 0.185662960559836 
927	 0.185639832765895 
928	 0.185531454379855 
929	 0.185441216111555 
930	 0.185340542090654 
931	 0.185269175123196 
932	 0.185281809848041 
933	 0.185148367397997 
934	 0.185066493492414 
935	 0.185022701271976 
936	 0.184821567898305 
937	 0.184677979383385 
938	 0.184562284731254 
939	 0.184486371721406 
940	 0.184507057847556 
941	 0.184365388966078 
942	 0.184221761893051 
943	 0.184123590986007 
944	 0.183923867475126 
945	 0.183856896571517 
946	 0.183821770233343 
947	 0.183738313646001 
948	 0.183642852408837 
949	 0.183579254543723 
950	 0.183587650120516 
951	 0.183572171556581 
952	 0.183264422968756 
953	 0.183149632323876 
954	 0.183170914519796 
955	 0.183150514318276 
956	 0.182941287822276 
957	 0.182830277597273 
958	 0.182741456132251 
959	 0.182585464042281 
960	 0.182417278916564 
961	 0.182400246725543 
962	 0.182227091992063 
963	 0.181805345257264 
964	 0.181692267978512 
965	 0.181591456759113 
966	 0.181605836788029 
967	 0.181777212847363 
968	 0.1818313074558 
969	 0.181758495023497 
970	 0.18154032757564 
971	 0.181278251926506 
972	 0.181290496247217 
973	 0.181417842490508 
974	 0.181385249602867 
975	 0.181234892882452 
976	 0.181741280723603 
977	 0.181783242720382 
978	 0.181488811938989 
979	 0.181228716218337 
980	 0.181078105717871 
981	 0.180987744133364 
982	 0.181133593215128 
983	 0.181400353734775 
984	 0.181008995100242 
985	 0.180767269904614 
986	 0.180857662177581 
987	 0.181060509639579 
988	 0.18076354282415 
989	 0.180884469300336 
990	 0.18090139464216 
991	 0.180589798041364 
992	 0.180873195162971 
993	 0.180887448085184 
994	 0.180646350704884 
995	 0.180374750380557 
996	 0.180273454709806 
997	 0.180312354993341 
998	 0.180290167073361 
999	 0.180299499124674 
1000	 0.180825079476467 
1001	 0.193234211518499 
1002	 0.193114838668068 
1003	 0.193109045629089 
1004	 0.193005024238054 
1005	 0.192870150164807 
1006	 0.192815838797636 
1007	 0.19274551334237 
1008	 0.192573649920242 
1009	 0.192493665135913 
1010	 0.192526017059478 
1011	 0.192505148465187 
1012	 0.192467779549439 
1013	 0.192438298979294 
1014	 0.192444470689404 
1015	 0.192333553123962 
1016	 0.192261018558073 
1017	 0.192276729590025 
1018	 0.19224116581609 
1019	 0.192231749297109 
1020	 0.192202249318497 
1021	 0.192196964103876 
1022	 0.192236612079189 
1023	 0.192210518321759 
1024	 0.192177756682263 
1025	 0.192175040379471 
1026	 0.192074530938576 
1027	 0.191877587239989 
1028	 0.191721655891389 
1029	 0.191660318251395 
1030	 0.191529230181482 
1031	 0.191532349629345 
1032	 0.191630437097294 
1033	 0.191552973569195 
1034	 0.191536852240296 
1035	 0.19152948283694 
1036	 0.191450266883142 
1037	 0.19144494755013 
1038	 0.191445284134821 
1039	 0.191439879758962 
1040	 0.191415016130991 
1041	 0.191453181542967 
1042	 0.191500864019482 
1043	 0.19151787789589 
1044	 0.191619284560985 
1045	 0.19159904522497 
1046	 0.191515824845535 
1047	 0.191555860843901 
1048	 0.191485307533763 
1049	 0.191467143417065 
1050	 0.191570266866837 
1051	 0.191586719800467 
1052	 0.191581412759918 
1053	 0.191531462772407 
1054	 0.191512068863156 
1055	 0.191451273088577 
1056	 0.191463204155601 
1057	 0.191515497621016 
1058	 0.19166200681635 
1059	 0.191707986496906 
1060	 0.191572357665982 
1061	 0.191471505355451 
1062	 0.191332979100277 
1063	 0.191205620755175 
1064	 0.191179632545806 
1065	 0.191171177752039 
1066	 0.191154587238944 
1067	 0.19108784259665 
1068	 0.190966625934219 
1069	 0.190832225417236 
1070	 0.19064498201682 
1071	 0.190416312530271 
1072	 0.19023197790888 
1073	 0.190077258286973 
1074	 0.189912744246443 
1075	 0.189758888077927 
1076	 0.189544654842024 
1077	 0.18934555641436 
1078	 0.189170237803605 
1079	 0.188918377913397 
1080	 0.188707870836522 
1081	 0.188524230289725 
1082	 0.188265079250271 
1083	 0.188013888055711 
1084	 0.187818394242101 
1085	 0.187599476846508 
1086	 0.187367441425132 
1087	 0.187121834239269 
1088	 0.186930393673962 
1089	 0.186762662323094 
1090	 0.186544958567021 
1091	 0.186327303786654 
1092	 0.186122536943034 
1093	 0.185856193703965 
1094	 0.185615308304384 
1095	 0.185455401930252 
1096	 0.185241847047632 
1097	 0.185017211642146 
1098	 0.184872040677189 
1099	 0.184666702082181 
1100	 0.184485023583521 
1101	 0.184327944602376 
1102	 0.18421453277474 
1103	 0.184022542477395 
1104	 0.183875681157979 
1105	 0.183758104351375 
1106	 0.183644403969365 
1107	 0.183527558818605 
1108	 0.183386867798497 
1109	 0.183289714993456 
1110	 0.183166278050747 
1111	 0.183055899627884 
1112	 0.182979378769854 
1113	 0.182878014269096 
1114	 0.182794414615306 
1115	 0.182726625569894 
1116	 0.182668808902758 
1117	 0.182620166638299 
1118	 0.182587783845029 
1119	 0.182573933176262 
1120	 0.182548614146349 
1121	 0.182496161970856 
1122	 0.182478538926424 
1123	 0.18245935125223 
1124	 0.182394828186955 
1125	 0.182340199599788 
1126	 0.182272278075841 
1127	 0.182194277959499 
1128	 0.182130932970937 
1129	 0.182073905330953 
1130	 0.182051588825872 
1131	 0.181947545466981 
1132	 0.181842812866431 
1133	 0.18171522335122 
1134	 0.181627541578134 
1135	 0.181538567305833 
1136	 0.181450431319712 
1137	 0.181357209744974 
1138	 0.181193021064616 
1139	 0.180990069444598 
1140	 0.180819134457216 
1141	 0.180690829956578 
1142	 0.1805728114553 
1143	 0.180428469638244 
1144	 0.180235210766659 
1145	 0.180026206978659 
1146	 0.17978534158848 
1147	 0.179589294241765 
1148	 0.179433969226011 
1149	 0.179263000412889 
1150	 0.179108695428221 
1151	 0.178926709892597 
1152	 0.178695635831859 
1153	 0.178506278184791 
1154	 0.17831660718807 
1155	 0.178171639370955 
1156	 0.178035485307134 
1157	 0.177890745054792 
1158	 0.177728939954105 
1159	 0.177593598067998 
1160	 0.177467348470426 
1161	 0.177327631396169 
1162	 0.177227018050395 
1163	 0.177127731059 
1164	 0.177026758686366 
1165	 0.176961328134938 
1166	 0.176853171323995 
1167	 0.176704979527761 
1168	 0.176574825783242 
1169	 0.176413573799248 
1170	 0.176302762215849 
1171	 0.176219601616384 
1172	 0.176155156225195 
1173	 0.176092197176882 
1174	 0.176020498300805 
1175	 0.175906749873588 
1176	 0.17578203830895 
1177	 0.175686763028486 
1178	 0.175593462678429 
1179	 0.175491573335254 
1180	 0.175424585662884 
1181	 0.175379650489658 
1182	 0.175270552341328 
1183	 0.175162742341142 
1184	 0.175054719458271 
1185	 0.174946844631108 
1186	 0.174791124586786 
1187	 0.174694731769078 
1188	 0.174656952590994 
1189	 0.174569239103357 
1190	 0.17446921371081 
1191	 0.174385818673827 
1192	 0.174290488800347 
1193	 0.174179724357706 
1194	 0.174075773293819 
1195	 0.173993556099422 
1196	 0.173942045387873 
1197	 0.173880061780201 
1198	 0.17378644182543 
1199	 0.173702630246978 
1200	 0.173619984698366 
1201	 0.173494954675934 
1202	 0.173409854648628 
1203	 0.173373924026045 
1204	 0.173292260588062 
1205	 0.173166545783881 
1206	 0.173095364992252 
1207	 0.173054998825234 
1208	 0.172998628365519 
1209	 0.172973575581373 
1210	 0.172918120510556 
1211	 0.172827345194974 
1212	 0.172749314085141 
1213	 0.17267275603101 
1214	 0.172595786069029 
1215	 0.172526732972866 
1216	 0.172443081140706 
1217	 0.172363870351896 
1218	 0.172320859784943 
1219	 0.172260813041684 
1220	 0.172195894310529 
1221	 0.172130236310518 
1222	 0.172079952131667 
1223	 0.171999761147031 
1224	 0.171885562984514 
1225	 0.171808844805681 
1226	 0.17174693890173 
1227	 0.171660528562159 
1228	 0.171579243199135 
1229	 0.17150471194176 
1230	 0.171415577575637 
1231	 0.17131873665916 
1232	 0.171253969644373 
1233	 0.171180861441735 
1234	 0.17110769404518 
1235	 0.171029011319274 
1236	 0.170963145563627 
1237	 0.170924293139647 
1238	 0.170850081580379 
1239	 0.170763532901527 
1240	 0.170682299331549 
1241	 0.170588829835119 
1242	 0.170489211047143 
1243	 0.170388223514537 
1244	 0.170299672215619 
1245	 0.17019468875729 
1246	 0.170102920634424 
1247	 0.170031970399505 
1248	 0.169967875576413 
1249	 0.169919121258761 
1250	 0.169848998182886 
1251	 0.169792766905368 
1252	 0.169698654921102 
1253	 0.169615676432878 
1254	 0.169540884340008 
1255	 0.169452315013044 
1256	 0.16943669015102 
1257	 0.169411593437527 
1258	 0.169316134264868 
1259	 0.169245005395368 
1260	 0.169180445090554 
1261	 0.169101714512417 
1262	 0.169003692593419 
1263	 0.168937897654022 
1264	 0.168885016010222 
1265	 0.168822168678488 
1266	 0.1687682654328 
1267	 0.168700001615568 
1268	 0.168636310012208 
1269	 0.168557168128888 
1270	 0.168456091919548 
1271	 0.168366836104452 
1272	 0.168276507141773 
1273	 0.168165035700892 
1274	 0.168086991455239 
1275	 0.168026280491516 
1276	 0.167946953781906 
1277	 0.167876840536451 
1278	 0.167821185395217 
1279	 0.167786751372569 
1280	 0.167745417974377 
1281	 0.167715706392367 
1282	 0.167692795359226 
1283	 0.167671323312192 
1284	 0.167650981069263 
1285	 0.167666584834999 
1286	 0.167637226398783 
1287	 0.16756259718156 
1288	 0.167521234785123 
1289	 0.167472041329655 
1290	 0.167440901658006 
1291	 0.167475127478816 
1292	 0.167427088732483 
1293	 0.16735938956728 
1294	 0.16725297501825 
1295	 0.16706825985358 
1296	 0.166903119481361 
1297	 0.166737426170225 
1298	 0.16653394691555 
1299	 0.166364930076675 
1300	 0.166174003936349 
1301	 0.165919717566259 
1302	 0.165651859927326 
1303	 0.165349346930283 
1304	 0.164985135152494 
1305	 0.164635835748974 
1306	 0.164272556988803 
1307	 0.163922835632281 
1308	 0.163573844567098 
1309	 0.163209838562025 
1310	 0.162849095487091 
1311	 0.162477648433195 
1312	 0.162078838558043 
1313	 0.16170288362121 
1314	 0.161329751337243 
1315	 0.160981740516912 
1316	 0.160683969140313 
1317	 0.160323274879217 
1318	 0.159920949387629 
1319	 0.159567863732324 
1320	 0.159196468018286 
1321	 0.15885274869472 
1322	 0.158568836993705 
1323	 0.158268429422367 
1324	 0.157975633006099 
1325	 0.157705287526074 
1326	 0.157478536238636 
1327	 0.15724944802028 
1328	 0.157027965721634 
1329	 0.156812445441144 
1330	 0.156615728001698 
1331	 0.156423587593768 
1332	 0.156255689874834 
1333	 0.156118995814423 
1334	 0.155960161596863 
1335	 0.155799179773211 
1336	 0.155659150436095 
1337	 0.155512526213582 
1338	 0.155389505825342 
1339	 0.155297626998909 
1340	 0.155195604773862 
1341	 0.155107122200644 
1342	 0.155005003771527 
1343	 0.154890000256391 
1344	 0.154785804119073 
1345	 0.154707983607457 
1346	 0.154585608324782 
1347	 0.154436113482817 
1348	 0.154294200259114 
1349	 0.154164632761378 
1350	 0.153998936920144 
1351	 0.153844734634545 
1352	 0.153717817010013 
1353	 0.153539756683058 
1354	 0.153316327216404 
1355	 0.153112374939631 
1356	 0.152886569938363 
1357	 0.152702546451188 
1358	 0.152544000986817 
1359	 0.1523639240504 
1360	 0.152195277022539 
1361	 0.152017895387332 
1362	 0.151837920658304 
1363	 0.151628239742889 
1364	 0.15143401990171 
1365	 0.151190885855469 
1366	 0.150936060270126 
1367	 0.150597717886382 
1368	 0.150239854524297 
1369	 0.149789254053842 
1370	 0.149265072213927 
1371	 0.148670438021871 
1372	 0.148006995403742 
1373	 0.147279488403684 
1374	 0.146433620754056 
1375	 0.145595239954982 
1376	 0.144666342235938 
1377	 0.143785546550656 
1378	 0.142866292102778 
1379	 0.142022353985765 
1380	 0.141241149037221 
1381	 0.140531303186587 
1382	 0.139906324380217 
1383	 0.139399465993005 
1384	 0.138869993939788 
1385	 0.13842850847133 
1386	 0.137892836442288 
1387	 0.137368983302311 
1388	 0.136768070151711 
1389	 0.136135309436184 
1390	 0.13540730806471 
1391	 0.13461652638793 
1392	 0.133758164225493 
1393	 0.132799841696007 
1394	 0.131817636774686 
1395	 0.130767916363678 
1396	 0.129716918339909 
1397	 0.128602078247541 
1398	 0.127517974698554 
1399	 0.126431318776156 
1400	 0.125343570789779 
1401	 0.124263681478848 
1402	 0.123174424993068 
1403	 0.122099109312445 
1404	 0.1209918450697 
1405	 0.119896943685981 
1406	 0.118733274474255 
1407	 0.117486269171481 
1408	 0.116262704048675 
1409	 0.114986494425049 
1410	 0.113722420710269 
1411	 0.112493317475282 
1412	 0.111414492489665 
1413	 0.110509762554023 
1414	 0.109799720293778 
1415	 0.109371979766181 
1416	 0.109223291206784 
1417	 0.109202023477325 
1418	 0.109467417873785 
1419	 0.109682046570848 
1420	 0.110084636908323 
1421	 0.110341047708003 
1422	 0.110620915389825 
1423	 0.110806266153582 
1424	 0.110933273684978 
1425	 0.111010906821727 
1426	 0.111009099522761 
1427	 0.111025078112493 
1428	 0.111003507246064 
1429	 0.110973491992412 
1430	 0.110936745046544 
1431	 0.110891621184704 
1432	 0.110808843140072 
1433	 0.110746266379462 
1434	 0.110699866590647 
1435	 0.110636073366488 
1436	 0.110553017932706 
1437	 0.110493174232246 
1438	 0.110443960948046 
1439	 0.110384901442764 
1440	 0.110333233428794 
1441	 0.110281707274596 
1442	 0.110219188538268 
1443	 0.110162755469372 
1444	 0.110107125092116 
1445	 0.110065982955953 
1446	 0.110033440061732 
1447	 0.109999660377929 
1448	 0.109958973427536 
1449	 0.109958813559752 
1450	 0.109966526468043 
1451	 0.109946543554785 
1452	 0.109923495930556 
1453	 0.10990421946158 
1454	 0.109882481224853 
1455	 0.109830006617256 
1456	 0.10983173062774 
1457	 0.109871084400519 
1458	 0.109881247072318 
1459	 0.109886283043468 
1460	 0.10992604587734 
1461	 0.109971159754353 
1462	 0.110023680601651 
1463	 0.110111249987026 
1464	 0.11018620060564 
1465	 0.110231646863278 
1466	 0.110329620391363 
1467	 0.11047243704781 
1468	 0.110592698004383 
1469	 0.110725337655993 
1470	 0.11085680469186 
1471	 0.110955933344952 
1472	 0.11111229048046 
1473	 0.111322155706509 
1474	 0.111500754292892 
1475	 0.111685251789849 
1476	 0.111884656841248 
1477	 0.112080006617103 
1478	 0.112271290027155 
1479	 0.112490488767464 
1480	 0.112691161616293 
1481	 0.112841964562193 
1482	 0.11304638204313 
1483	 0.113305224117326 
1484	 0.113519152491569 
1485	 0.113724091048454 
1486	 0.113944120944578 
1487	 0.114141144992366 
1488	 0.11434927463945 
1489	 0.114596120276651 
1490	 0.114819278457675 
1491	 0.115008472806075 
1492	 0.115221468472754 
1493	 0.115438016031159 
1494	 0.115669372759751 
1495	 0.115918842095407 
1496	 0.116140126042576 
1497	 0.116350481608022 
1498	 0.116578926093538 
1499	 0.116786370215647 
1500	 0.117001121496175 
1501	 0.117229503167974 
1502	 0.117473385965209 
1503	 0.117684650822413 
1504	 0.117894875867117 
1505	 0.118102416428559 
1506	 0.118275057466331 
1507	 0.11849428881202 
1508	 0.118751592154207 
1509	 0.118968741410777 
1510	 0.119184724997655 
1511	 0.119396512519417 
1512	 0.119579127177849 
1513	 0.119791386295967 
1514	 0.120038110944643 
1515	 0.120233446519188 
1516	 0.12039942679074 
1517	 0.12059870114582 
1518	 0.120784125465682 
1519	 0.120982994758664 
1520	 0.121226492848767 
1521	 0.121427147864951 
1522	 0.121591143954262 
1523	 0.121781322557921 
1524	 0.121985649531295 
1525	 0.122162748913563 
1526	 0.122322873229942 
1527	 0.122505134407858 
1528	 0.122681966546469 
1529	 0.122858572445929 
1530	 0.123057812967088 
1531	 0.123245005976726 
1532	 0.123414312565099 
1533	 0.12358551859994 
1534	 0.123766088177996 
1535	 0.123939050997053 
1536	 0.124098712389354 
1537	 0.124260019976447 
1538	 0.124439295486328 
1539	 0.124585666137666 
1540	 0.124693061872817 
1541	 0.124832938200976 
1542	 0.124968782127256 
1543	 0.125108280948333 
1544	 0.125283427170444 
1545	 0.125432587385674 
1546	 0.125556219361715 
1547	 0.125690878980522 
1548	 0.125826664039717 
1549	 0.125954587262691 
1550	 0.126073203699471 
1551	 0.126209025148777 
1552	 0.126357737861964 
1553	 0.126487601226054 
1554	 0.12663254086364 
1555	 0.126753390894284 
1556	 0.126824855843456 
1557	 0.12692963508107 
1558	 0.127051543338557 
1559	 0.127159915442322 
1560	 0.127280715782489 
1561	 0.127393371812953 
1562	 0.127488051589737 
1563	 0.127584175605747 
1564	 0.12768262602116 
1565	 0.127778661347836 
1566	 0.127867001204028 
1567	 0.127960026246975 
1568	 0.128077139918334 
1569	 0.128160113570692 
1570	 0.128203091283922 
1571	 0.128288088991747 
1572	 0.128366363897388 
1573	 0.128418301228888 
1574	 0.1285193401641 
1575	 0.128614543918788 
1576	 0.128673512002176 
1577	 0.12875651284914 
1578	 0.12884597994196 
1579	 0.128897584937062 
1580	 0.128941174128754 
1581	 0.129012037176537 
1582	 0.129053136816916 
1583	 0.129088686971475 
1584	 0.129177452271365 
1585	 0.129223166656208 
1586	 0.12925913591776 
1587	 0.129336601597225 
1588	 0.129364175932282 
1589	 0.129391722604574 
1590	 0.12948003735948 
1591	 0.12954447198532 
1592	 0.129563770157442 
1593	 0.129615955230805 
1594	 0.129660820889216 
1595	 0.129654859777545 
1596	 0.129695385899586 
1597	 0.129767428751078 
1598	 0.129798616503599 
1599	 0.129823335966174 
1600	 0.129857237974209 
1601	 0.129868842504535 
1602	 0.129873381744216 
1603	 0.129916620799885 
1604	 0.129933957560199 
1605	 0.129912356166608 
1606	 0.129938249955523 
1607	 0.129978028480819 
1608	 0.130013627199031 
1609	 0.130068730086666 
1610	 0.130095471393428 
1611	 0.130099760957171 
1612	 0.130118810939344 
1613	 0.13014966604342 
1614	 0.130156223830541 
1615	 0.130158472029242 
1616	 0.13013818224264 
1617	 0.130079979547702 
1618	 0.130083056019674 
1619	 0.13010650899095 
1620	 0.130100001235906 
1621	 0.130109161740015 
1622	 0.130128260929521 
1623	 0.130129161610559 
1624	 0.130148264499988 
1625	 0.130154996228519 
1626	 0.130132149451216 
1627	 0.130113292164211 
1628	 0.130113548621446 
1629	 0.130108315100785 
1630	 0.130094139108822 
1631	 0.130084173484822 
1632	 0.130067663324279 
1633	 0.13005007971714 
1634	 0.130038728652039 
1635	 0.130031708118478 
1636	 0.130037454897169 
1637	 0.130058341219465 
1638	 0.130055831542327 
1639	 0.130020978979039 
1640	 0.129999283907873 
1641	 0.130002344750618 
1642	 0.129999321234117 
1643	 0.129968354591333 
1644	 0.129941283447619 
1645	 0.129927265326919 
1646	 0.12990060795282 
1647	 0.129908200250144 
1648	 0.129914863115175 
1649	 0.129841923668594 
1650	 0.129800283720409 
1651	 0.129815292447726 
1652	 0.12979756341988 
1653	 0.129793095335026 
1654	 0.129801985777111 
1655	 0.129755679462748 
1656	 0.12971308822502 
1657	 0.129698743269299 
1658	 0.129658044656271 
1659	 0.129632157473781 
1660	 0.129607412234936 
1661	 0.129563382986566 
1662	 0.129547194668842 
1663	 0.129511635355272 
1664	 0.129450328441817 
1665	 0.129413365313832 
1666	 0.129376793258786 
1667	 0.129342149469669 
1668	 0.12933274842214 
1669	 0.129330817726008 
1670	 0.129325822617553 
1671	 0.129279906838227 
1672	 0.129203565050586 
1673	 0.129143512975971 
1674	 0.129069384272369 
1675	 0.129012452545158 
1676	 0.128992132212124 
1677	 0.128959403577153 
1678	 0.128916948655533 
1679	 0.128870345083199 
1680	 0.128831011082224 
1681	 0.128798552097184 
1682	 0.128729187287668 
1683	 0.12864749996189 
1684	 0.128617826161714 
1685	 0.128603832656527 
1686	 0.128579581589855 
1687	 0.12856899294977 
1688	 0.128529876484155 
1689	 0.128449926370531 
1690	 0.128403205845948 
1691	 0.128373840395809 
1692	 0.128290690967988 
1693	 0.128199466808256 
1694	 0.128151503555034 
1695	 0.12810893453557 
1696	 0.128071109960666 
1697	 0.128035155482039 
1698	 0.127975798594681 
1699	 0.127913518833445 
1700	 0.127887302495175 
1701	 0.127812807381402 
1702	 0.127683131506379 
1703	 0.127591205626493 
1704	 0.127486291132464 
1705	 0.127401730694654 
1706	 0.127347441390532 
1707	 0.127280227059915 
1708	 0.127246400870845 
1709	 0.127155954067126 
1710	 0.127011204047303 
1711	 0.126914787271948 
1712	 0.126794055433593 
1713	 0.126695407075125 
1714	 0.126651915528766 
1715	 0.12657915466593 
1716	 0.126486481714949 
1717	 0.126400550041738 
1718	 0.126335855939477 
1719	 0.126250485089274 
1720	 0.126143054005553 
1721	 0.126039589147771 
1722	 0.125923464285196 
1723	 0.125821516527582 
1724	 0.125729153704231 
1725	 0.125622988292905 
1726	 0.125520101969353 
1727	 0.125414020975999 
1728	 0.125299422070238 
1729	 0.125191766160904 
1730	 0.125059284795221 
1731	 0.124892565454028 
1732	 0.124737743479465 
1733	 0.124616626244494 
1734	 0.124490403959539 
1735	 0.124368747951363 
1736	 0.124252856675277 
1737	 0.124100027165188 
1738	 0.123955494792978 
1739	 0.123825767247312 
1740	 0.123655787334061 
1741	 0.123493024552527 
1742	 0.123331758389715 
1743	 0.123149912416699 
1744	 0.123007991776051 
1745	 0.122883457125297 
1746	 0.122746568506828 
1747	 0.122623112842541 
1748	 0.12249853775332 
1749	 0.122333359997049 
1750	 0.122163341566301 
1751	 0.122018649941656 
1752	 0.121856115694873 
1753	 0.121727075922032 
1754	 0.121618684827107 
1755	 0.121457636174081 
1756	 0.121290568307336 
1757	 0.121104812845834 
1758	 0.120924465206622 
1759	 0.120820755516941 
1760	 0.120717801634631 
1761	 0.120597295492153 
1762	 0.120479236141898 
1763	 0.120275502400651 
1764	 0.120104903596723 
1765	 0.119951150791969 
1766	 0.119794355863304 
1767	 0.119621746438979 
1768	 0.119485282581718 
1769	 0.119370228224088 
1770	 0.119265682329206 
1771	 0.119195642073824 
1772	 0.119098243159552 
1773	 0.118995149723532 
1774	 0.118869129205331 
1775	 0.118731955936058 
1776	 0.118558953514072 
1777	 0.118463387474853 
1778	 0.118351174853776 
1779	 0.118236631182639 
1780	 0.118202803980234 
1781	 0.118053204101758 
1782	 0.117966028097449 
1783	 0.11794956781459 
1784	 0.117859089719752 
1785	 0.117822458365219 
1786	 0.117772682925816 
1787	 0.11766422728127 
1788	 0.11756481550071 
1789	 0.117498074670349 
1790	 0.117468604379319 
1791	 0.117451605884126 
1792	 0.117420569096967 
1793	 0.117363823790161 
1794	 0.117263372647567 
1795	 0.117105237872095 
1796	 0.117019067717358 
1797	 0.117015053610038 
1798	 0.116989080585841 
1799	 0.117018693000443 
1800	 0.117012761358638 
1801	 0.116913715314635 
1802	 0.116866286964029 
1803	 0.116827284646141 
1804	 0.116808195745942 
1805	 0.116781947576899 
1806	 0.116725775005329 
1807	 0.116690759321445 
1808	 0.116660209273214 
1809	 0.116672263545715 
1810	 0.11669450404884 
1811	 0.116661634221923 
1812	 0.116621689745811 
1813	 0.116589021097085 
1814	 0.116480001818188 
1815	 0.116429105723632 
1816	 0.116471885162246 
1817	 0.116412054495231 
1818	 0.116380398885131 
1819	 0.116389275012909 
1820	 0.116287001203862 
1821	 0.116197232226735 
1822	 0.116185491638816 
1823	 0.116192931395683 
1824	 0.116195406259057 
1825	 0.116234130375833 
1826	 0.116233193449124 
1827	 0.116151169548324 
1828	 0.116066475270583 
1829	 0.115951874894582 
1830	 0.11582469900086 
1831	 0.119352486828451 
1832	 0.119237976557676 
1833	 0.119056210663146 
1834	 0.118923446865658 
1835	 0.118726924863604 
1836	 0.118611094264166 
1837	 0.118604879325119 
1838	 0.118492977256608 
1839	 0.118310952017457 
1840	 0.118213312635316 
1841	 0.11808851615332 
1842	 0.117911440049328 
1843	 0.117761566492823 
1844	 0.117693786060183 
1845	 0.117501421413706 
1846	 0.117230441142936 
1847	 0.116992398046669 
1848	 0.116691801614392 
1849	 0.116448395817175 
1850	 0.116275365013715 
1851	 0.11593839630377 
1852	 0.115645759139836 
1853	 0.11536879055779 
1854	 0.11502756153711 
1855	 0.114647429089763 
1856	 0.11428730746717 
1857	 0.113937822868669 
1858	 0.113488888430756 
1859	 0.113070580548226 
1860	 0.1125844755413 
1861	 0.111987311743499 
1862	 0.111392681742259 
1863	 0.110762498594959 
1864	 0.110090313048031 
1865	 0.109381612568234 
1866	 0.10861153924068 
1867	 0.107848650270511 
1868	 0.107082165514602 
1869	 0.106260951941103 
1870	 0.105372984777876 
1871	 0.104495692631579 
1872	 0.103515663140003 
1873	 0.102481140769114 
1874	 0.101431903032747 
1875	 0.100370380631105 
1876	 9.92523474128902E-02 
1877	 9.80917635573806E-02 
1878	 0.096922333821231 
1879	 9.56827037300685E-02 
1880	 9.45007060868353E-02 
1881	 9.32930617827715E-02 
1882	 9.19779786605794E-02 
1883	 9.06665747263571E-02 
1884	 8.93340186307737E-02 
1885	 8.80223774377644E-02 
1886	 8.66883641165425E-02 
1887	 8.54080160053887E-02 
1888	 8.41687341273524E-02 
1889	 8.28995986510002E-02 
1890	 0.081628158074782 
1891	 8.03974048729866E-02 
1892	 7.91940045840755E-02 
1893	 7.80508084599635E-02 
1894	 7.70288979736803E-02 
1895	 7.60140515449847E-02 
1896	 7.50381899029186E-02 
1897	 0.074078688363539 
1898	 7.32291884902712E-02 
1899	 0.072434786544696 
1900	 7.17193629727781E-02 
1901	 7.10499708958443E-02 
1902	 7.03699449889959E-02 
1903	 6.97575411014977E-02 
1904	 6.92136182333437E-02 
1905	 0.068739872366049 
1906	 6.83166743700556E-02 
1907	 6.79205607095813E-02 
1908	 6.75649901471561E-02 
1909	 6.72236525787494E-02 
1910	 6.69141151852698E-02 
1911	 6.66124294529517E-02 
1912	 6.63589292365994E-02 
1913	 6.61222118603075E-02 
1914	 6.59440624538336E-02 
1915	 6.58329878468983E-02 
1916	 6.56620189294811E-02 
1917	 6.54846302366575E-02 
1918	 6.53630331731201E-02 
1919	 6.52402930299987E-02 
1920	 6.51318471726482E-02 
1921	 6.50872941088742E-02 
1922	 0.065047408846597 
1923	 6.49244149422773E-02 
1924	 6.48473784453559E-02 
1925	 6.48282553784086E-02 
1926	 6.48132154365584E-02 
1927	 6.47330665202239E-02 
1928	 6.46423643143656E-02 
1929	 6.46308530635811E-02 
1930	 6.45801008077787E-02 
1931	 6.45583425065081E-02 
1932	 6.45819696043284E-02 
1933	 6.46755545130115E-02 
1934	 6.46777930880638E-02 
1935	 6.46578356271434E-02 
1936	 6.46756943645131E-02 
1937	 0.064729363845721 
1938	 6.47627645298137E-02 
1939	 6.47670773358814E-02 
1940	 6.48576263733723E-02 
1941	 6.49381521319931E-02 
1942	 6.49709740006608E-02 
1943	 6.49720010973714E-02 
1944	 6.50312885420908E-02 
1945	 6.51059628306105E-02 
1946	 6.51951000532512E-02 
1947	 6.53291424736951E-02 
1948	 6.54884449825275E-02 
1949	 6.55977418497125E-02 
1950	 6.56501852956126E-02 
1951	 6.56984812085089E-02 
1952	 6.58089894682565E-02 
1953	 6.59627983707393E-02 
1954	 6.60586367541906E-02 
1955	 6.61257701092889E-02 
1956	 6.61915815075992E-02 
1957	 6.63062651855512E-02 
1958	 6.63896960120241E-02 
1959	 6.64491285209328E-02 
1960	 6.66217687066515E-02 
1961	 6.67745617547545E-02 
1962	 6.68316673601601E-02 
1963	 6.69859166450198E-02 
1964	 6.71822572344414E-02 
1965	 6.73411007841187E-02 
1966	 6.75166177236931E-02 
1967	 6.76899410818812E-02 
1968	 6.78880197107969E-02 
1969	 0.068013543685836 
1970	 6.81454306441823E-02 
1971	 6.83489487783297E-02 
1972	 0.068476341965866 
1973	 6.86057009984684E-02 
1974	 6.88260052337675E-02 
1975	 6.89857887412045E-02 
1976	 6.91331717906628E-02 
1977	 0.069357959585308 
1978	 6.95392321497477E-02 
1979	 6.96705778172599E-02 
1980	 6.97775560261529E-02 
1981	 6.99975031800354E-02 
1982	 7.02119936032086E-02 
1983	 7.03872638752694E-02 
1984	 7.06153175394016E-02 
1985	 7.07921237618861E-02 
1986	 7.09372537798617E-02 
1987	 7.11592279672927E-02 
1988	 7.13513473391388E-02 
1989	 7.15004248662264E-02 
1990	 7.16963879428433E-02 
1991	 0.071901315888835 
1992	 7.20866488917797E-02 
1993	 7.22883812599784E-02 
1994	 0.072555100801468 
1995	 7.27645437560686E-02 
1996	 0.072883702167347 
1997	 7.30021093947854E-02 
1998	 7.31002710625915E-02 
1999	 7.32332340191257E-02 
2000	 7.34751732365606E-02 
2001	 7.36857409268675E-02 
2002	 7.39260477727463E-02 
2003	 7.42049064165076E-02 
2004	 0.074418649293188 
2005	 7.45532640532618E-02 
2006	 7.47607215111434E-02 
2007	 0.074991092572809 
2008	 0.075177149262173 
2009	 7.53705984814626E-02 
2010	 7.56072324228869E-02 
2011	 7.58319669317443E-02 
2012	 7.60105495409839E-02 
2013	 7.61818952179074E-02 
2014	 7.63848714182798E-02 
2015	 0.076593503605742 
2016	 7.67498029437952E-02 
2017	 7.69452885097999E-02 
2018	 7.72053063951592E-02 
2019	 7.74214684020049E-02 
2020	 7.75992241218071E-02 
2021	 7.78229351200545E-02 
2022	 7.80726353548651E-02 
2023	 7.82506766679116E-02 
2024	 7.84103801573045E-02 
2025	 7.86101444998603E-02 
2026	 7.88335619924541E-02 
2027	 7.90427147168979E-02 
2028	 7.92217840623721E-02 
2029	 7.94270402773744E-02 
2030	 0.079606606751656 
2031	 7.96965499725279E-02 
2032	 7.98638922371851E-02 
2033	 8.01040618754902E-02 
2034	 8.02922075915405E-02 
2035	 8.04603819716327E-02 
2036	 8.06870569806334E-02 
2037	 8.08617095576262E-02 
2038	 8.09627222376946E-02 
2039	 8.11453988837953E-02 
2040	 8.13514162551408E-02 
2041	 8.15258843915811E-02 
2042	 0.081698655952031 
2043	 8.18247895375924E-02 
2044	 8.19334520959444E-02 
2045	 8.20855070305541E-02 
2046	 8.22852877105638E-02 
2047	 8.24543950975529E-02 
2048	 8.26363785583532E-02 
2049	 8.28035757134515E-02 
2050	 8.29316229794981E-02 
2051	 8.30707065614057E-02 
2052	 8.32779464688291E-02 
2053	 8.34455247658119E-02 
2054	 8.35587152549005E-02 
2055	 8.37063745371234E-02 
2056	 8.38419612401524E-02 
2057	 8.39461485986522E-02 
2058	 8.41228982990814E-02 
2059	 8.42932284044715E-02 
2060	 8.44361347929272E-02 
2061	 8.45402346929189E-02 
2062	 8.46876974594414E-02 
2063	 8.48443966251402E-02 
2064	 8.49961565567694E-02 
2065	 8.51585172710736E-02 
2066	 8.53206328327716E-02 
2067	 8.55078395239748E-02 
2068	 8.56529733891374E-02 
2069	 8.57682102345178E-02 
2070	 8.58747676738564E-02 
2071	 8.59942288657094E-02 
2072	 8.61566327895976E-02 
2073	 8.63003435392288E-02 
2074	 8.64350851926848E-02 
2075	 0.08656096318894 
2076	 8.66209779245782E-02 
2077	 8.67211908970491E-02 
2078	 8.68714214751786E-02 
2079	 8.69905459756587E-02 
2080	 8.71019644529862E-02 
2081	 0.087186299551848 
2082	 8.72962524124506E-02 
2083	 8.73737072363349E-02 
2084	 8.74552170126276E-02 
2085	 8.76209316779804E-02 
2086	 8.77479409872132E-02 
2087	 8.78387177573622E-02 
2088	 8.80327646097769E-02 
2089	 8.81933125914521E-02 
2090	 8.82961867852495E-02 
2091	 8.83701299757245E-02 
2092	 8.84984743613935E-02 
2093	 8.85434984370127E-02 
2094	 8.86628573124627E-02 
2095	 8.88718960212672E-02 
2096	 8.90882341552579E-02 
2097	 8.91755493246607E-02 
2098	 8.92748766710955E-02 
2099	 8.93576712834271E-02 
2100	 8.93866321120226E-02 
2101	 8.94589263276134E-02 
2102	 8.95629637543775E-02 
2103	 0.089621880579495 
2104	 8.97221777316506E-02 
2105	 8.98601753815833E-02 
2106	 8.99554877417819E-02 
2107	 9.00703347909816E-02 
2108	 9.02319163394036E-02 
2109	 9.03388732268312E-02 
2110	 9.04093477933445E-02 
2111	 9.04810601651776E-02 
2112	 9.04782976553673E-02 
2113	 0.090562791914177 
2114	 9.06745263800151E-02 
2115	 9.08701517906294E-02 
2116	 9.09611039332934E-02 
2117	 9.10726636270167E-02 
2118	 9.11874726987115E-02 
2119	 9.11868319765644E-02 
2120	 9.13079426713221E-02 
2121	 9.14716923373797E-02 
2122	 9.15267859583885E-02 
2123	 9.16037649547361E-02 
2124	 9.16525351519487E-02 
2125	 9.16722445537031E-02 
2126	 9.16972243575989E-02 
2127	 9.17035779470918E-02 
2128	 9.17189074988946E-02 
2129	 9.17435959601577E-02 
2130	 9.17549543199793E-02 
2131	 0.091756853090703 
2132	 9.17616487937756E-02 
2133	 9.17830351258277E-02 
2134	 9.17456906397567E-02 
2135	 9.16520831159846E-02 
2136	 9.16179278154521E-02 
2137	 9.15761458206751E-02 
2138	 9.14970319338406E-02 
2139	 9.14384306821034E-02 
2140	 9.13526566664207E-02 
2141	 9.12789395313843E-02 
2142	 9.12032803215146E-02 
2143	 9.10933373603398E-02 
2144	 9.09706342771653E-02 
2145	 9.08549027539732E-02 
2146	 0.090662450719381 
2147	 9.05546238601887E-02 
2148	 9.05748332423588E-02 
2149	 9.04674101738204E-02 
2150	 9.02951150149194E-02 
2151	 9.01794837654031E-02 
2152	 9.00399717670465E-02 
2153	 0.089826836772158 
2154	 8.96623194562811E-02 
2155	 8.94858410466134E-02 
2156	 8.92024838303162E-02 
2157	 8.89252847219119E-02 
2158	 8.86475777521126E-02 
2159	 8.83301385792361E-02 
2160	 8.80266260690164E-02 
2161	 8.77152092481349E-02 
2162	 8.73707328427732E-02 
2163	 8.69915784897328E-02 
2164	 8.66383493520672E-02 
2165	 8.62669334610837E-02 
2166	 0.08592693723644 
2167	 8.56405680200677E-02 
2168	 0.085294812764064 
2169	 8.49272087848077E-02 
2170	 8.45490646648223E-02 
2171	 8.41296952066567E-02 
2172	 8.37467264919279E-02 
2173	 0.083375998314712 
2174	 8.29623016831364E-02 
2175	 8.26402670739753E-02 
2176	 0.082434543717088 
2177	 8.21916141860037E-02 
2178	 8.18989874897141E-02 
2179	 8.16000041541297E-02 
2180	 8.13491244535727E-02 
2181	 8.11761443560297E-02 
2182	 0.081031396443121 
2183	 8.08752902290578E-02 
2184	 8.07023006950559E-02 
2185	 8.05731306456719E-02 
2186	 0.080470438928416 
2187	 8.03926082806607E-02 
2188	 8.04048551179115E-02 
2189	 8.03197378100721E-02 
2190	 8.01773683601275E-02 
2191	 8.00525527763162E-02 
2192	 7.99269240334821E-02 
2193	 7.97547872140513E-02 
2194	 7.95022900372818E-02 
2195	 0.079291529970475 
2196	 0.079004754961844 
2197	 7.85897407088989E-02 
2198	 7.81870623814685E-02 
2199	 7.77951048550499E-02 
2200	 7.73464556419877E-02 
2201	 0.076832605104515 
2202	 7.64006994586196E-02 
2203	 7.59571314959965E-02 
2204	 7.55938219031908E-02 
2205	 7.52820004329604E-02 
2206	 7.50485291778518E-02 
2207	 7.48329568769981E-02 
2208	 0.07477732486876 
2209	 0.07483435719277 
2210	 7.49178516765708E-02 
2211	 7.51769839084487E-02 
2212	 7.54155480229659E-02 
2213	 0.075644710819569 
2214	 7.59015564344824E-02 
2215	 7.62603826043017E-02 
2216	 7.65230188721621E-02 
2217	 7.66834992606199E-02 
2218	 7.69325037511897E-02 
2219	 7.71200984253032E-02 
2220	 7.73199718276524E-02 
2221	 7.75915175939836E-02 
2222	 7.77603340940382E-02 
2223	 7.79324014317826E-02 
2224	 0.078108983486129 
2225	 7.81742646782104E-02 
2226	 7.82318119747872E-02 
2227	 7.82933433476283E-02 
2228	 7.83393502505971E-02 
2229	 7.84525670004684E-02 
2230	 7.86075506943538E-02 
2231	 7.87276366335649E-02 
2232	 7.88712068686342E-02 
2233	 7.89187020682122E-02 
2234	 7.89125256664198E-02 
2235	 0.07894500190187 
2236	 7.89474988779529E-02 
2237	 7.89414097024396E-02 
2238	 7.89066666682169E-02 
2239	 7.88933679485496E-02 
2240	 7.89088364422341E-02 
2241	 7.88755752282024E-02 
2242	 7.88103876505265E-02 
2243	 7.88265776178754E-02 
2244	 0.078793641483345 
2245	 7.87025471077449E-02 
2246	 7.87837343533842E-02 
2247	 7.88207257199295E-02 
2248	 7.87560773849012E-02 
2249	 7.87369828060279E-02 
2250	 7.87217602373123E-02 
2251	 7.87396394135857E-02 
2252	 7.87012984632641E-02 
2253	 7.86134339951966E-02 
2254	 7.86064370514108E-02 
2255	 7.85638505114542E-02 
2256	 0.078414105034567 
2257	 7.83180317690041E-02 
2258	 7.83184102388187E-02 
2259	 0.078273261171032 
2260	 7.82397390294047E-02 
2261	 7.83515057654084E-02 
2262	 7.83893160351669E-02 
2263	 7.83084328120546E-02 
2264	 7.83125784192153E-02 
2265	 7.84354174884301E-02 
2266	 7.84328398892642E-02 
2267	 7.83384061851171E-02 
2268	 7.83313096996053E-02 
2269	 7.83409664938248E-02 
2270	 0.078305762833325 
2271	 7.82649956444531E-02 
2272	 7.82305855566507E-02 
2273	 7.81166356574818E-02 
2274	 7.81308375211459E-02 
2275	 7.81279195118577E-02 
2276	 7.81804485486365E-02 
2277	 7.81412651620897E-02 
2278	 7.79251278400749E-02 
2279	 7.78811861768964E-02 
2280	 7.78272949760136E-02 
2281	 7.76473320892473E-02 
2282	 7.75721443945728E-02 
2283	 0.077508798122984 
2284	 7.73408364681208E-02 
2285	 7.72572146373628E-02 
2286	 7.73302089544452E-02 
2287	 7.72598375237964E-02 
2288	 7.71538206587956E-02 
2289	 7.71051564609067E-02 
2290	 7.69810521543887E-02 
2291	 7.69371243114795E-02 
2292	 7.68907075754199E-02 
2293	 7.67745300907011E-02 
2294	 7.66670438553959E-02 
2295	 7.65615384776704E-02 
2296	 7.64060268891533E-02 
2297	 7.63217812977524E-02 
2298	 7.62878491460507E-02 
2299	 7.62281440877689E-02 
2300	 7.62113771882472E-02 
2301	 7.60810628459763E-02 
2302	 0.075837061100115 
2303	 7.57709716516551E-02 
2304	 7.57124159944142E-02 
2305	 7.56693542197265E-02 
2306	 0.075798555422886 
2307	 7.58304800053867E-02 
2308	 7.57545681400885E-02 
2309	 7.57377613586243E-02 
2310	 7.58246056125873E-02 
2311	 7.57883609276901E-02 
2312	 7.56540543103055E-02 
2313	 7.55710041485752E-02 
2314	 7.55206984425151E-02 
2315	 7.54016868231945E-02 
2316	 7.54236596030786E-02 
2317	 7.54551579249406E-02 
2318	 7.53585311396412E-02 
2319	 7.52280206214017E-02 
2320	 7.51065259955175E-02 
2321	 7.50039295342889E-02 
2322	 0.07492766256736 
2323	 7.49456446212712E-02 
2324	 0.074877234343062 
2325	 7.47063930958992E-02 
2326	 7.47750000970186E-02 
2327	 7.48232183312177E-02 
2328	 7.46188704414279E-02 
2329	 7.45785273025692E-02 
2330	 7.45545054462054E-02 
2331	 7.42812110832318E-02 
2332	 7.41563273625525E-02 
2333	 7.41605815327113E-02 
2334	 7.39937709956731E-02 
2335	 7.38999615618268E-02 
2336	 7.39609148548588E-02 
2337	 7.38765689470563E-02 
2338	 7.37212520148499E-02 
2339	 7.36260310745871E-02 
2340	 0.073390327944592 
2341	 7.31357177182228E-02 
2342	 7.30226527557684E-02 
2343	 7.28620037371905E-02 
2344	 7.27651265246713E-02 
2345	 7.27464035485592E-02 
2346	 7.26201074366573E-02 
2347	 7.25449022943917E-02 
2348	 7.24779297483853E-02 
2349	 7.24197402440315E-02 
2350	 7.23143831033424E-02 
2351	 7.22052495903776E-02 
2352	 7.21042220993411E-02 
2353	 7.20175058286014E-02 
2354	 7.18547901516538E-02 
2355	 7.16113819811967E-02 
2356	 7.15132156114445E-02 
2357	 7.14424226386343E-02 
2358	 7.12779771178374E-02 
2359	 7.11937474116296E-02 
2360	 0.071083738419038 
2361	 7.08027296964827E-02 
2362	 7.06691021171763E-02 
2363	 7.07642647772674E-02 
2364	 7.06373127646058E-02 
2365	 7.03046691367912E-02 
2366	 7.01628309281653E-02 
2367	 7.01690443652598E-02 
2368	 6.99521616568429E-02 
2369	 6.96139276339793E-02 
2370	 6.94587426827218E-02 
2371	 6.91584632167591E-02 
2372	 6.90624776698052E-02 
2373	 0.069445695433076 
2374	 0.06934027995106 
2375	 6.89190273478749E-02 
2376	 6.86835015884787E-02 
2377	 0.068223382768086 
2378	 6.80929437837874E-02 
2379	 6.82396319650458E-02 
2380	 6.82066552563936E-02 
2381	 6.80138970673642E-02 
2382	 0.067876468077919 
2383	 6.77833305634824E-02 
2384	 6.76207470417346E-02 
2385	 6.76750786538391E-02 
2386	 6.77407315028929E-02 
2387	 6.74310047561652E-02 
2388	 6.72357250059111E-02 
2389	 6.70998924735411E-02 
2390	 6.66365153146419E-02 
2391	 6.65076218618064E-02 
2392	 6.66946941461392E-02 
2393	 6.64348363655021E-02 
2394	 6.63255241016144E-02 
2395	 6.64945690718718E-02 
2396	 6.61436756962284E-02 
2397	 6.59883594130887E-02 
2398	 6.62955666594586E-02 
2399	 6.62220341941333E-02 
2400	 6.61398419184122E-02 
2401	 6.60948399643689E-02 
2402	 6.56666469598117E-02 
2403	 6.53234445759684E-02 
2404	 6.51728790858132E-02 
2405	 6.49428688477327E-02 
2406	 6.47059239380472E-02 
2407	 0.064572217913046 
2408	 6.44450669935425E-02 
2409	 6.43816375600589E-02 
2410	 6.44929134425609E-02 
2411	 6.45202730377243E-02 
2412	 6.42227760176257E-02 
2413	 6.39931901327646E-02 
2414	 0.063859081414374 
2415	 6.34489649262413E-02 
2416	 6.33144035301001E-02 
2417	 6.35464379217045E-02 
2418	 6.34849673495108E-02 
2419	 6.31739241813928E-02 
2420	 6.30786453613057E-02 
2421	 6.30560574927188E-02 
2422	 6.26231103233345E-02 
2423	 6.22507303023914E-02 
2424	 6.21691752254602E-02 
2425	 6.19593790049013E-02 
2426	 6.19449753891235E-02 
2427	 6.20233893104919E-02 
2428	 6.18350998121378E-02 
2429	 6.14838453065538E-02 
2430	 6.09828357576671E-02 
2431	 6.07040746278664E-02 
2432	 6.08774721821843E-02 
2433	 6.10709302551351E-02 
2434	 6.07481268567498E-02 
2435	 0.060339677645141 
2436	 0.060435233063288 
2437	 6.02968844967271E-02 
2438	 6.00299418818388E-02 
2439	 6.01717079917694E-02 
2440	 5.98367256645131E-02 
2441	 5.93425397522968E-02 
2442	 0.059278262294114 
2443	 5.92204726526887E-02 
2444	 5.91992509584323E-02 
2445	 5.90905274000942E-02 
2446	 5.89613687027736E-02 
2447	 5.86803670725595E-02 
2448	 5.82887877896535E-02 
2449	 5.81298934734574E-02 
2450	 5.79754662064529E-02 
2451	 5.80172649825945E-02 
2452	 5.81411988263766E-02 
2453	 5.73261949092104E-02 
2454	 5.70756749656004E-02 
2455	 5.70857917352379E-02 
2456	 5.69930114524665E-02 
2457	 5.73073025798487E-02 
2458	 5.73450332647855E-02 
2459	 5.68383228426962E-02 
2460	 5.67004430645825E-02 
2461	 5.69344827903355E-02 
2462	 0.05687300021151 
2463	 5.68490273928955E-02 
2464	 5.66411130664349E-02 
2465	 5.59239394924844E-02 
2466	 5.55619353298589E-02 
2467	 0.055442242815843 
2468	 5.53995493911091E-02 
2469	 5.56710836270964E-02 
2470	 5.55120463449623E-02 
2471	 5.48578530536753E-02 
2472	 0.054745497158644 
2473	 5.48956966878663E-02 
2474	 5.48347743088328E-02 
2475	 0.055118065963799 
2476	 5.50728023790349E-02 
2477	 5.47062278598677E-02 
2478	 5.40967325405679E-02 
2479	 5.28045082343679E-02 
2480	 5.27160720441243E-02 
2481	 5.32417142870977E-02 
2482	 5.27775988154231E-02 
2483	 5.34414766018188E-02 
2484	 5.36762592175127E-02 
2485	 5.24940138466502E-02 
2486	 0.052490209021416 
2487	 5.34630015895025E-02 
2488	 5.37498833638034E-02 
2489	 5.31618275183845E-02 
2490	 0.052718412246295 
2491	 5.25899889245111E-02 
2492	 5.21944082485471E-02 
2493	 5.22664782983291E-02 
2494	 0.052479549555704 
2495	 5.19047475815907E-02 
2496	 0.051571511182443 
2497	 5.18564448497963E-02 
2498	 5.20738843176864E-02 
2499	 5.20905186385326E-02 
2500	 5.17686602867837E-02 
