Wavelength	WH1059X00001.asd
350	 0.17332291886862 
351	 0.17386351998461 
352	 0.145333933153761 
353	 0.139759877365925 
354	 0.15866903963887 
355	 0.180528451288802 
356	 0.171480549665553 
357	 0.160616485417379 
358	 0.162283669283296 
359	 0.17453364992859 
360	 0.173490865332125 
361	 0.167099171710662 
362	 0.164112779899272 
363	 0.170121939104636 
364	 0.168317294441956 
365	 0.166382817591798 
366	 0.170329668992158 
367	 0.176143860604867 
368	 0.169520053295051 
369	 0.161215381297074 
370	 0.164937611405721 
371	 0.17207613114851 
372	 0.178011715577913 
373	 0.179858125592663 
374	 0.176856502486631 
375	 0.175404812934181 
376	 0.171141269568685 
377	 0.165911296143093 
378	 0.17038163463393 
379	 0.17686287617111 
380	 0.179459140223088 
381	 0.176387747864932 
382	 0.174228960105717 
383	 0.172973990861882 
384	 0.174853815770013 
385	 0.18072860663783 
386	 0.180553420476362 
387	 0.179682238060302 
388	 0.179706920650696 
389	 0.178345514084268 
390	 0.17872326754781 
391	 0.180233612174701 
392	 0.181567185055646 
393	 0.181307989639356 
394	 0.180644025381148 
395	 0.180077668668861 
396	 0.180062800960019 
397	 0.181841978546667 
398	 0.182170148858784 
399	 0.182048658943294 
400	 0.184132151030584 
401	 0.180745808411496 
402	 0.180040181347375 
403	 0.183313058964417 
404	 0.181457750418783 
405	 0.180098111328376 
406	 0.180564693522834 
407	 0.182349581598729 
408	 0.18285348005536 
409	 0.183057558778668 
410	 0.182679022637579 
411	 0.181441694367957 
412	 0.182005180012263 
413	 0.183249096358076 
414	 0.184227346522465 
415	 0.18452837084371 
416	 0.184942264839583 
417	 0.185367093095596 
418	 0.185403234523428 
419	 0.18419434154368 
420	 0.183804063717746 
421	 0.184465509607289 
422	 0.18547642952734 
423	 0.185141839955259 
424	 0.185292268506698 
425	 0.18600125434413 
426	 0.185982925211437 
427	 0.18579937791718 
428	 0.186068493495781 
429	 0.187058753435165 
430	 0.188648555363955 
431	 0.187980678953006 
432	 0.187067223867103 
433	 0.188104849869301 
434	 0.188457409240649 
435	 0.187438720061239 
436	 0.186635973841951 
437	 0.18846504968599 
438	 0.188531280708052 
439	 0.18827734853756 
440	 0.188644291316657 
441	 0.188700959449238 
442	 0.189255786932246 
443	 0.189901897802614 
444	 0.190075061256684 
445	 0.189711319008815 
446	 0.190043847541675 
447	 0.190697097677921 
448	 0.190461831873379 
449	 0.190198234813619 
450	 0.19035006041962 
451	 0.190850904134486 
452	 0.190999145718282 
453	 0.190978324682172 
454	 0.191129648388495 
455	 0.191574866615726 
456	 0.19153911377009 
457	 0.191259754849378 
458	 0.191237239194853 
459	 0.191944799438462 
460	 0.192254302258873 
461	 0.192107969977979 
462	 0.191800062687563 
463	 0.191925953493494 
464	 0.192013609341274 
465	 0.192011765156468 
466	 0.191982412850069 
467	 0.191951183875789 
468	 0.192048622604883 
469	 0.192123202260503 
470	 0.191933143240293 
471	 0.192311557607944 
472	 0.192558620669591 
473	 0.192431952755882 
474	 0.192732451577294 
475	 0.192911197324144 
476	 0.192840144127195 
477	 0.192594394496861 
478	 0.192497291523965 
479	 0.192651153655542 
480	 0.192834431206552 
481	 0.192661626655207 
482	 0.192601864484113 
483	 0.192795489603632 
484	 0.19311791695883 
485	 0.193052990981846 
486	 0.193232590940151 
487	 0.193489873167148 
488	 0.193454494206522 
489	 0.192987894870718 
490	 0.193054149402055 
491	 0.19359940028458 
492	 0.193748793255157 
493	 0.193775968421055 
494	 0.193753790820503 
495	 0.193660925771832 
496	 0.193244442868081 
497	 0.193630245052315 
498	 0.194132701333791 
499	 0.193775816057255 
500	 0.193676580670722 
501	 0.193911166139485 
502	 0.19427747459802 
503	 0.194381680954774 
504	 0.194284930656636 
505	 0.19441926120065 
506	 0.194895186472853 
507	 0.194942680059603 
508	 0.194671410308998 
509	 0.194512922375709 
510	 0.194888985542984 
511	 0.195229051060317 
512	 0.195332568769994 
513	 0.195253207876898 
514	 0.195282073621806 
515	 0.195350627778453 
516	 0.195373864069616 
517	 0.195416299012354 
518	 0.196078041563625 
519	 0.196067519830074 
520	 0.19565519939443 
521	 0.195803942183437 
522	 0.196129762351709 
523	 0.196380580735355 
524	 0.196461327754095 
525	 0.196467626874994 
526	 0.196598142470195 
527	 0.196686023513998 
528	 0.19663167147603 
529	 0.196944777621663 
530	 0.196989259966044 
531	 0.196856778701979 
532	 0.197054007007314 
533	 0.197131577090871 
534	 0.197285426682346 
535	 0.197530377022874 
536	 0.197420859013598 
537	 0.197609139835159 
538	 0.197782563789774 
539	 0.197534335218683 
540	 0.197394080498925 
541	 0.197555031415237 
542	 0.197923086109246 
543	 0.198174111477749 
544	 0.198080373490152 
545	 0.198082815396978 
546	 0.198381691091242 
547	 0.198410250547162 
548	 0.198364594734868 
549	 0.198386157970695 
550	 0.198542122052795 
551	 0.198533603351496 
552	 0.19853425502079 
553	 0.198558876569739 
554	 0.198423294639972 
555	 0.198232615379853 
556	 0.198150788583657 
557	 0.19822281040137 
558	 0.198117939061039 
559	 0.198123736886658 
560	 0.198176248737513 
561	 0.198079567228199 
562	 0.198216337773551 
563	 0.198428626630026 
564	 0.198549191977942 
565	 0.198482098342243 
566	 0.198381483319276 
567	 0.198446426310322 
568	 0.198734445278065 
569	 0.198734490655724 
570	 0.198812795834795 
571	 0.198966804698993 
572	 0.198922090548493 
573	 0.198840783509555 
574	 0.198797357011258 
575	 0.198795989326264 
576	 0.198696564087522 
577	 0.198908541323852 
578	 0.19923253736137 
579	 0.199321425158478 
580	 0.199424764698814 
581	 0.199467909611778 
582	 0.199446672133219 
583	 0.199438252812504 
584	 0.199177130017554 
585	 0.199140678822543 
586	 0.199569023673438 
587	 0.199671657760682 
588	 0.199630826602787 
589	 0.199541447883939 
590	 0.199436346594308 
591	 0.199085802063578 
592	 0.19872101865363 
593	 0.198464669398576 
594	 0.198234936405977 
595	 0.198076908256575 
596	 0.198000042621178 
597	 0.197985036444044 
598	 0.197964541556266 
599	 0.197834958577575 
600	 0.197646596456891 
601	 0.197549004259202 
602	 0.197515279333909 
603	 0.197393917019619 
604	 0.197184549310971 
605	 0.19720814369386 
606	 0.197160395097173 
607	 0.197052406979608 
608	 0.196966348383937 
609	 0.196763717048521 
610	 0.196656078022637 
611	 0.196631968495748 
612	 0.196478309880848 
613	 0.196582447571654 
614	 0.196572410736736 
615	 0.196249592882604 
616	 0.196202000930848 
617	 0.19615823660255 
618	 0.19607691086848 
619	 0.195999762079101 
620	 0.195838688509307 
621	 0.195761557948275 
622	 0.195795951287666 
623	 0.195771002877054 
624	 0.195558435337787 
625	 0.195385238421847 
626	 0.195412557675591 
627	 0.195264606703211 
628	 0.195167236606337 
629	 0.195119287608042 
630	 0.194990441413155 
631	 0.194875323771184 
632	 0.194849286597651 
633	 0.194865887248755 
634	 0.194673251660731 
635	 0.194593275855254 
636	 0.194549677613639 
637	 0.194404547524966 
638	 0.194331197736045 
639	 0.194296505166891 
640	 0.19428590311531 
641	 0.19429560494078 
642	 0.194166540831186 
643	 0.194040058828384 
644	 0.194001423826233 
645	 0.193896452656159 
646	 0.193796219586891 
647	 0.193741324308661 
648	 0.193733949863441 
649	 0.193620467629119 
650	 0.193490088579096 
651	 0.193425570086931 
652	 0.193475481654651 
653	 0.193463205267739 
654	 0.193373333596698 
655	 0.193243868211533 
656	 0.193134158653197 
657	 0.193150188384364 
658	 0.19315412221141 
659	 0.192951246377976 
660	 0.192910906878547 
661	 0.192890035094625 
662	 0.192798960076966 
663	 0.192681858497609 
664	 0.19261914079921 
665	 0.192566078837932 
666	 0.192483966962209 
667	 0.192479240417803 
668	 0.19245493672117 
669	 0.192364900787491 
670	 0.192221604061666 
671	 0.192238791931587 
672	 0.192250659518165 
673	 0.192189701605182 
674	 0.192223899261818 
675	 0.192130874851275 
676	 0.192008018715076 
677	 0.191978845749786 
678	 0.191869598458773 
679	 0.19174083076051 
680	 0.191706672976767 
681	 0.191872679728325 
682	 0.191820523932072 
683	 0.191750644317676 
684	 0.191774366257085 
685	 0.19165050160414 
686	 0.191624884104385 
687	 0.191632778920467 
688	 0.191561311874654 
689	 0.191600861713689 
690	 0.191535580542217 
691	 0.191409948378085 
692	 0.19147708206705 
693	 0.19143538574867 
694	 0.19136209338369 
695	 0.191353676638835 
696	 0.191419461265983 
697	 0.191442303268534 
698	 0.191408271791412 
699	 0.191350332131984 
700	 0.191304363094356 
701	 0.191255553679881 
702	 0.191226803805603 
703	 0.191273806710694 
704	 0.191363805616458 
705	 0.191320607636465 
706	 0.191112523942824 
707	 0.191082120100375 
708	 0.191163607144942 
709	 0.191226520616304 
710	 0.191150511018141 
711	 0.191073485867455 
712	 0.191121254208798 
713	 0.19123142375913 
714	 0.191170489583692 
715	 0.19112830101335 
716	 0.191098293953136 
717	 0.191048061205624 
718	 0.19095685260808 
719	 0.191005131239162 
720	 0.191090868767798 
721	 0.191046039335182 
722	 0.191077802383024 
723	 0.191066588917668 
724	 0.19098587133613 
725	 0.190924166115799 
726	 0.190934312297505 
727	 0.190957347051971 
728	 0.190936767393521 
729	 0.190868378883819 
730	 0.190879618045645 
731	 0.19091894783122 
732	 0.19088662698754 
733	 0.190872908354685 
734	 0.190847448805214 
735	 0.190794414918846 
736	 0.19072431862545 
737	 0.190751782358871 
738	 0.190792289305203 
739	 0.190779146699987 
740	 0.190775430356126 
741	 0.190735498797731 
742	 0.19070534100235 
743	 0.190735902330249 
744	 0.190723856857461 
745	 0.190702956990704 
746	 0.190702410895085 
747	 0.19073405259674 
748	 0.190721653064338 
749	 0.190630414215297 
750	 0.190517053156236 
751	 0.190612123040042 
752	 0.190630955195136 
753	 0.190578031561725 
754	 0.190545419559998 
755	 0.19053623309069 
756	 0.190530400246761 
757	 0.190540006533847 
758	 0.1905878389029 
759	 0.190511292699628 
760	 0.190455178206739 
761	 0.190474336594392 
762	 0.190395349616413 
763	 0.190441800184934 
764	 0.190495700799483 
765	 0.190426048395515 
766	 0.190422932726144 
767	 0.190517692000879 
768	 0.190548252748262 
769	 0.190317801752267 
770	 0.190375295814398 
771	 0.190421207950535 
772	 0.190335570546238 
773	 0.190355673716073 
774	 0.190322801186437 
775	 0.190273397072402 
776	 0.190255218073311 
777	 0.190218928020671 
778	 0.190188275405909 
779	 0.190172876520284 
780	 0.190174168815348 
781	 0.190191277453798 
782	 0.190179501928048 
783	 0.190126507155649 
784	 0.190058973417015 
785	 0.19005366591476 
786	 0.190074552760057 
787	 0.19006821786515 
788	 0.189987772738736 
789	 0.189931961183406 
790	 0.189937583173384 
791	 0.189990123647784 
792	 0.189978026375959 
793	 0.189917738444682 
794	 0.189850306734857 
795	 0.189823352752793 
796	 0.189805139236868 
797	 0.189777605756403 
798	 0.189760229799786 
799	 0.189816654850672 
800	 0.189791346598458 
801	 0.189756978070048 
802	 0.189764639413722 
803	 0.189647123723393 
804	 0.189583185564646 
805	 0.18959044910853 
806	 0.189600732823877 
807	 0.189482544797489 
808	 0.189466669872091 
809	 0.189550852605502 
810	 0.189533455698142 
811	 0.18948143563952 
812	 0.189425987250254 
813	 0.189388886006877 
814	 0.18938068128527 
815	 0.189369195128547 
816	 0.18933906482389 
817	 0.189289331143751 
818	 0.189238792591537 
819	 0.189231453250658 
820	 0.189238127122081 
821	 0.189205312733341 
822	 0.189167561651171 
823	 0.189079532218614 
824	 0.189001621186394 
825	 0.189064014681219 
826	 0.189044993250866 
827	 0.188996977583951 
828	 0.188973745362651 
829	 0.188962634958729 
830	 0.188889534887686 
831	 0.188783987219116 
832	 0.188706045189201 
833	 0.188717437158493 
834	 0.188729324376515 
835	 0.188693416106567 
836	 0.188613935766118 
837	 0.188652351954658 
838	 0.188647615041251 
839	 0.18856658038003 
840	 0.188492680362407 
841	 0.188440681434409 
842	 0.18843975908037 
843	 0.188450990715435 
844	 0.188353788640243 
845	 0.188377084495149 
846	 0.188362543012993 
847	 0.188201459214223 
848	 0.188100521024508 
849	 0.188086592791738 
850	 0.188075143634985 
851	 0.18799258211279 
852	 0.188007449807194 
853	 0.187974836333353 
854	 0.187865496430853 
855	 0.187752439280931 
856	 0.187862034736609 
857	 0.187858066247851 
858	 0.187703024191826 
859	 0.187683811413588 
860	 0.187737737135942 
861	 0.187718682962477 
862	 0.187591903163709 
863	 0.18751730736533 
864	 0.187460614988347 
865	 0.187429121654317 
866	 0.18742138466876 
867	 0.187403311540492 
868	 0.187334283911161 
869	 0.187251129807764 
870	 0.187212453591145 
871	 0.187235671515343 
872	 0.187230434858568 
873	 0.187182881460291 
874	 0.187118487615152 
875	 0.186960907944623 
876	 0.186977418295928 
877	 0.187045002591054 
878	 0.186759404626053 
879	 0.18679637420027 
880	 0.186804387945141 
881	 0.186633236804745 
882	 0.186586868753517 
883	 0.186669052725223 
884	 0.186596794240307 
885	 0.186319949525213 
886	 0.186368046579541 
887	 0.186363314890904 
888	 0.186383603318529 
889	 0.186490107731503 
890	 0.18628773871541 
891	 0.186203058937867 
892	 0.186194042404238 
893	 0.186094594039407 
894	 0.186094442396996 
895	 0.186138386729417 
896	 0.186093271389525 
897	 0.185876404927354 
898	 0.185947427341134 
899	 0.185983348099897 
900	 0.185862423177653 
901	 0.185697093844074 
902	 0.18559374363964 
903	 0.185641545829669 
904	 0.185713385651476 
905	 0.185500046188572 
906	 0.185578306787949 
907	 0.185541863871799 
908	 0.18526674760853 
909	 0.185303726022055 
910	 0.185223631227072 
911	 0.185088626771231 
912	 0.185007403242166 
913	 0.184946538064325 
914	 0.184989146841087 
915	 0.185003867692943 
916	 0.184890886383603 
917	 0.18480556255332 
918	 0.184818793835701 
919	 0.184786953057096 
920	 0.184591056965647 
921	 0.184497376241198 
922	 0.184496130994247 
923	 0.184536330450467 
924	 0.184535318411454 
925	 0.184381596219571 
926	 0.18427184190268 
927	 0.184207284986898 
928	 0.184093053328165 
929	 0.184056398691054 
930	 0.183926451384712 
931	 0.18382228642213 
932	 0.183977009047277 
933	 0.183816049243188 
934	 0.18360090377327 
935	 0.183490089277527 
936	 0.183467506019978 
937	 0.183519111521958 
938	 0.183487076503459 
939	 0.183338706745948 
940	 0.18318789379484 
941	 0.183051612760928 
942	 0.182864980340094 
943	 0.182699837706139 
944	 0.182768178333654 
945	 0.182703790574261 
946	 0.182565557302393 
947	 0.182476973087541 
948	 0.182523981735642 
949	 0.182522188690841 
950	 0.182453801791813 
951	 0.182288597656664 
952	 0.181942442780171 
953	 0.181968742309535 
954	 0.181960927791095 
955	 0.181703946306966 
956	 0.181675175707248 
957	 0.181498719420995 
958	 0.181329538777941 
959	 0.181273860785882 
960	 0.181119456559257 
961	 0.18098769238232 
962	 0.1808643282536 
963	 0.180684426501268 
964	 0.180350439020321 
965	 0.180263012902985 
966	 0.180421020178349 
967	 0.180586500046424 
968	 0.180311729444753 
969	 0.180125726957554 
970	 0.180097675523417 
971	 0.18010650244612 
972	 0.179921124094121 
973	 0.179933443036002 
974	 0.180078384713336 
975	 0.180186630177349 
976	 0.180170973570111 
977	 0.180117538575186 
978	 0.180128108659196 
979	 0.180170391694388 
980	 0.179935692327248 
981	 0.179698180473752 
982	 0.179742378335599 
983	 0.180000040091066 
984	 0.17972384669061 
985	 0.179775996683202 
986	 0.179953225187953 
987	 0.179881935824354 
988	 0.179450301284403 
989	 0.179647434017337 
990	 0.179890531480082 
991	 0.179717230107466 
992	 0.179640549912571 
993	 0.179722631869501 
994	 0.179523462674027 
995	 0.179023348105619 
996	 0.179043522286208 
997	 0.179163764314526 
998	 0.179153087495364 
999	 0.179046027230586 
1000	 0.179189724082007 
1001	 0.190289469449376 
1002	 0.190212537554651 
1003	 0.190148043845445 
1004	 0.190044245839488 
1005	 0.189947456232086 
1006	 0.189891194862215 
1007	 0.189850997320708 
1008	 0.189820527292931 
1009	 0.189802591361143 
1010	 0.189843580289899 
1011	 0.189792845366421 
1012	 0.189685472951722 
1013	 0.189626031318408 
1014	 0.189591988496338 
1015	 0.189515279328453 
1016	 0.189491823126022 
1017	 0.189514869531013 
1018	 0.189408082862573 
1019	 0.189272554911297 
1020	 0.189150205547831 
1021	 0.189009479090705 
1022	 0.188943720472215 
1023	 0.188913671452026 
1024	 0.188904932860421 
1025	 0.188976430130802 
1026	 0.188988024643756 
1027	 0.18899386213368 
1028	 0.18899618118707 
1029	 0.188895253025291 
1030	 0.188771512562114 
1031	 0.188756166828081 
1032	 0.188679649083609 
1033	 0.188596377202027 
1034	 0.188579442898277 
1035	 0.1885032560008 
1036	 0.188460887704013 
1037	 0.188474794606317 
1038	 0.188477244133127 
1039	 0.188468377029368 
1040	 0.188432240796328 
1041	 0.18838009258139 
1042	 0.188394366687674 
1043	 0.188375571164294 
1044	 0.188344528898715 
1045	 0.188418169834165 
1046	 0.188433453707909 
1047	 0.188457222209397 
1048	 0.18851955311214 
1049	 0.188530585690262 
1050	 0.188559355117521 
1051	 0.188567272313955 
1052	 0.188586972644321 
1053	 0.188593976251229 
1054	 0.188591527993741 
1055	 0.18857794144958 
1056	 0.188575616232863 
1057	 0.188510750992893 
1058	 0.188503259543356 
1059	 0.188476638160543 
1060	 0.188404339632057 
1061	 0.1883635137303 
1062	 0.188280142117933 
1063	 0.188196485777592 
1064	 0.188140926796638 
1065	 0.188093642284357 
1066	 0.188047824741994 
1067	 0.187959176463424 
1068	 0.187821368401525 
1069	 0.187717181859996 
1070	 0.187632916964662 
1071	 0.187543599404342 
1072	 0.187397323357433 
1073	 0.187203034461509 
1074	 0.186993304159844 
1075	 0.18678243369215 
1076	 0.186510454798904 
1077	 0.186272178709175 
1078	 0.186112535869359 
1079	 0.185868356905968 
1080	 0.185622530558017 
1081	 0.18551372072222 
1082	 0.185300655160443 
1083	 0.185080027360858 
1084	 0.184957883720352 
1085	 0.184765825167534 
1086	 0.184521172261131 
1087	 0.184316620214114 
1088	 0.184099288582192 
1089	 0.183836078355153 
1090	 0.183597237112264 
1091	 0.183403091169911 
1092	 0.183279522903896 
1093	 0.183067535423315 
1094	 0.182846925645213 
1095	 0.182660299894916 
1096	 0.182366673498094 
1097	 0.182168560632019 
1098	 0.1820357662057 
1099	 0.181795873709861 
1100	 0.181602533552789 
1101	 0.181430724389702 
1102	 0.181248503668619 
1103	 0.181072120723651 
1104	 0.181004463254847 
1105	 0.180936883045904 
1106	 0.180812660904806 
1107	 0.180606446986157 
1108	 0.180423901055179 
1109	 0.1803247754845 
1110	 0.180232987833955 
1111	 0.180206306692466 
1112	 0.180159342521791 
1113	 0.1800399956839 
1114	 0.179973184534289 
1115	 0.179912925045985 
1116	 0.179890088889672 
1117	 0.179844317335143 
1118	 0.179811081492824 
1119	 0.179727625196867 
1120	 0.17963622753279 
1121	 0.179608081368276 
1122	 0.179582953215668 
1123	 0.179500119829311 
1124	 0.179472370873417 
1125	 0.17944977860678 
1126	 0.179358107560822 
1127	 0.179356340601984 
1128	 0.179349636472552 
1129	 0.179262523258634 
1130	 0.179182388198508 
1131	 0.179058606380176 
1132	 0.178959154455319 
1133	 0.178849562432274 
1134	 0.17874323113759 
1135	 0.178650659596321 
1136	 0.178575450466605 
1137	 0.178408173380074 
1138	 0.178263790431777 
1139	 0.178170149578849 
1140	 0.177992648251054 
1141	 0.177853125726229 
1142	 0.177712932511408 
1143	 0.177488589951964 
1144	 0.177312178986539 
1145	 0.177118412343562 
1146	 0.176917967455967 
1147	 0.176730395114445 
1148	 0.17653602364679 
1149	 0.176341542255256 
1150	 0.176154090372174 
1151	 0.175973486877365 
1152	 0.175803029715629 
1153	 0.175637490076101 
1154	 0.175477142146987 
1155	 0.175320198297656 
1156	 0.175186902679623 
1157	 0.175020698644447 
1158	 0.174865163778092 
1159	 0.174739409954265 
1160	 0.174585966641145 
1161	 0.174443279698969 
1162	 0.174375512452337 
1163	 0.174282774823723 
1164	 0.174161027158863 
1165	 0.174031946521381 
1166	 0.173913051708513 
1167	 0.17373896868055 
1168	 0.173633897831222 
1169	 0.173604355479077 
1170	 0.173523893639559 
1171	 0.173439884609816 
1172	 0.173351382429974 
1173	 0.173248252906971 
1174	 0.173122864424186 
1175	 0.173041365634449 
1176	 0.172961865030163 
1177	 0.172851168460154 
1178	 0.172769950052328 
1179	 0.172701837721879 
1180	 0.172607150166081 
1181	 0.17250047895052 
1182	 0.172397555630286 
1183	 0.172296277294831 
1184	 0.172161684237542 
1185	 0.172059961806632 
1186	 0.172003853779351 
1187	 0.171910850990376 
1188	 0.171797967155858 
1189	 0.171700079571585 
1190	 0.17160255046933 
1191	 0.171490311297531 
1192	 0.171403337294285 
1193	 0.17132978745439 
1194	 0.171221318329399 
1195	 0.171094293925114 
1196	 0.170987423852353 
1197	 0.17089504338205 
1198	 0.170878493971354 
1199	 0.170879794363753 
1200	 0.170819736523887 
1201	 0.170744095766486 
1202	 0.170669846330992 
1203	 0.170540241498433 
1204	 0.170449711067146 
1205	 0.170376952779024 
1206	 0.170312320630386 
1207	 0.170273003375693 
1208	 0.170202452892361 
1209	 0.170122466650707 
1210	 0.170065399744253 
1211	 0.169988791011615 
1212	 0.169903757673826 
1213	 0.169872011397047 
1214	 0.16983835343162 
1215	 0.16973480182493 
1216	 0.169630733743348 
1217	 0.16954893918244 
1218	 0.169439340926502 
1219	 0.169358500362557 
1220	 0.169323837727474 
1221	 0.169261571903206 
1222	 0.169193515737786 
1223	 0.169112443745844 
1224	 0.169005896988852 
1225	 0.168930716061927 
1226	 0.168860493944934 
1227	 0.168798407623039 
1228	 0.168792792735868 
1229	 0.168721995405151 
1230	 0.168592481689456 
1231	 0.168495717486062 
1232	 0.168424530381547 
1233	 0.168347570446421 
1234	 0.168306882304406 
1235	 0.168233666112239 
1236	 0.168126679517299 
1237	 0.168055421090129 
1238	 0.167972116306958 
1239	 0.167906684737868 
1240	 0.167822417259173 
1241	 0.167712121281388 
1242	 0.167623956179427 
1243	 0.167555837550465 
1244	 0.167468579218027 
1245	 0.167363383698655 
1246	 0.167283390512142 
1247	 0.167216098414736 
1248	 0.167140298778746 
1249	 0.167063026330549 
1250	 0.167005312928932 
1251	 0.166970399053375 
1252	 0.166886612006017 
1253	 0.16682954956733 
1254	 0.166811980265588 
1255	 0.166723611901181 
1256	 0.166648193429636 
1257	 0.16658660306319 
1258	 0.166491087415174 
1259	 0.166430968484435 
1260	 0.166403819981128 
1261	 0.166336982398998 
1262	 0.166264495124486 
1263	 0.16619888598894 
1264	 0.166106515596617 
1265	 0.166035171573102 
1266	 0.165993738083543 
1267	 0.165923533306879 
1268	 0.165845741348762 
1269	 0.165772108556942 
1270	 0.165690569222222 
1271	 0.165600113220469 
1272	 0.165511868366356 
1273	 0.165396064176518 
1274	 0.165310883140212 
1275	 0.165256020799719 
1276	 0.165189881940314 
1277	 0.165140911637829 
1278	 0.165062634287607 
1279	 0.164963869161383 
1280	 0.164924122743037 
1281	 0.164922816658545 
1282	 0.164904976579406 
1283	 0.164931198155167 
1284	 0.164904992487648 
1285	 0.164828903468496 
1286	 0.164802689708157 
1287	 0.164789049985931 
1288	 0.164762281343044 
1289	 0.164767753223448 
1290	 0.164738642723916 
1291	 0.164687968277982 
1292	 0.164615366743543 
1293	 0.164535714217476 
1294	 0.16442901286022 
1295	 0.164279816959083 
1296	 0.164132901350194 
1297	 0.163987072097662 
1298	 0.16381917890079 
1299	 0.163590385330902 
1300	 0.163312498271704 
1301	 0.163073662904958 
1302	 0.162811051946076 
1303	 0.162507383702278 
1304	 0.162212108513562 
1305	 0.161899085479641 
1306	 0.161506161841775 
1307	 0.161170352866026 
1308	 0.160906274672831 
1309	 0.16056207609942 
1310	 0.160172565257369 
1311	 0.15979952510586 
1312	 0.159389296143764 
1313	 0.159013412482728 
1314	 0.15865893787047 
1315	 0.158313554365454 
1316	 0.158021244437025 
1317	 0.157659630962169 
1318	 0.157221185996784 
1319	 0.156870095854549 
1320	 0.156516307682837 
1321	 0.156192162357426 
1322	 0.15593851795391 
1323	 0.155719044768174 
1324	 0.15542984039266 
1325	 0.155126024197678 
1326	 0.154873089288446 
1327	 0.15462740232338 
1328	 0.154409387295045 
1329	 0.154240880605882 
1330	 0.15403437530463 
1331	 0.153805926593477 
1332	 0.153634840018565 
1333	 0.153485538494651 
1334	 0.153322812927442 
1335	 0.153196832720488 
1336	 0.153048684528844 
1337	 0.152852325080804 
1338	 0.152717181693734 
1339	 0.152628252535402 
1340	 0.152516313825733 
1341	 0.152426303691528 
1342	 0.152312511791258 
1343	 0.152163960411893 
1344	 0.152046182046869 
1345	 0.151944387169724 
1346	 0.151831197348742 
1347	 0.151739350480049 
1348	 0.151629604589698 
1349	 0.151468145787064 
1350	 0.151296852346017 
1351	 0.15112164901296 
1352	 0.150930743244547 
1353	 0.150742816658889 
1354	 0.150561254011838 
1355	 0.150367430998878 
1356	 0.150154822289449 
1357	 0.149959025362684 
1358	 0.149760655241732 
1359	 0.149579197618974 
1360	 0.149419783893917 
1361	 0.149233468503561 
1362	 0.149063872764848 
1363	 0.14885273059659 
1364	 0.148619317263542 
1365	 0.148362419466548 
1366	 0.148127584294984 
1367	 0.147781950268898 
1368	 0.147390958460071 
1369	 0.146934382034782 
1370	 0.146402290945451 
1371	 0.145812472039274 
1372	 0.145199911078293 
1373	 0.144480699177336 
1374	 0.143611661118652 
1375	 0.142770743582772 
1376	 0.141816220365904 
1377	 0.140933367804245 
1378	 0.140041158382203 
1379	 0.139230545345592 
1380	 0.138471262027394 
1381	 0.137767525474467 
1382	 0.137136410973562 
1383	 0.136606559788697 
1384	 0.13604772813772 
1385	 0.135548961177254 
1386	 0.135005684845228 
1387	 0.134492780650326 
1388	 0.133882802510684 
1389	 0.133269007475201 
1390	 0.132530070727078 
1391	 0.131675019001765 
1392	 0.130809765154342 
1393	 0.129882468718802 
1394	 0.128904373608979 
1395	 0.127875811111004 
1396	 0.126820539013953 
1397	 0.125658655084073 
1398	 0.124565127133543 
1399	 0.123484970668298 
1400	 0.122398094014452 
1401	 0.121336830782058 
1402	 0.120254142916106 
1403	 0.119170709335088 
1404	 0.118059786443859 
1405	 0.116955182648208 
1406	 0.115798944520039 
1407	 0.114583224828358 
1408	 0.113365929519293 
1409	 0.112087071364494 
1410	 0.110826401187686 
1411	 0.109598428316975 
1412	 0.108521252131868 
1413	 0.107652814455687 
1414	 0.106958789918593 
1415	 0.106523183804302 
1416	 0.10633374672172 
1417	 0.106303791073105 
1418	 0.106561434519026 
1419	 0.106759710034175 
1420	 0.107151462786371 
1421	 0.107401565358059 
1422	 0.107669003781058 
1423	 0.107834541899452 
1424	 0.107941905030429 
1425	 0.108020498778379 
1426	 0.108020063654979 
1427	 0.10802766802646 
1428	 0.108010199360592 
1429	 0.107993062695387 
1430	 0.107968774565427 
1431	 0.107911458520416 
1432	 0.107826477145621 
1433	 0.107753854743917 
1434	 0.1076412830915 
1435	 0.107564423103197 
1436	 0.107521891163453 
1437	 0.107467443792397 
1438	 0.107416021255484 
1439	 0.107363318981446 
1440	 0.107319074077978 
1441	 0.107261155538317 
1442	 0.107190285321959 
1443	 0.107126477754052 
1444	 0.107033246515575 
1445	 0.106982675718006 
1446	 0.106980965707786 
1447	 0.106953395495134 
1448	 0.106949480511504 
1449	 0.106915141940408 
1450	 0.106856940649784 
1451	 0.106833361332823 
1452	 0.106817501358559 
1453	 0.106822797492381 
1454	 0.106820663132849 
1455	 0.106828226580554 
1456	 0.106824183402745 
1457	 0.106808796680268 
1458	 0.10682007193555 
1459	 0.10683589022591 
1460	 0.106862783060664 
1461	 0.106911358557178 
1462	 0.106958343597227 
1463	 0.106989466005575 
1464	 0.107068911983368 
1465	 0.107182266736006 
1466	 0.107288286515464 
1467	 0.107423173576325 
1468	 0.107549880490211 
1469	 0.107661936051267 
1470	 0.107799700917339 
1471	 0.107957743396606 
1472	 0.108112637257166 
1473	 0.108272673218542 
1474	 0.108443946079646 
1475	 0.108620824392782 
1476	 0.108807105867907 
1477	 0.109013729194489 
1478	 0.109209485146083 
1479	 0.109399622213846 
1480	 0.109600447579264 
1481	 0.109804600387496 
1482	 0.110012835974416 
1483	 0.110243875341236 
1484	 0.110450305550948 
1485	 0.11062484973225 
1486	 0.110830591995751 
1487	 0.111037068347657 
1488	 0.111255740215872 
1489	 0.111527959136495 
1490	 0.111758097873709 
1491	 0.111939966356453 
1492	 0.112161707836765 
1493	 0.112402764439364 
1494	 0.112623337099926 
1495	 0.112846860999984 
1496	 0.113060002382015 
1497	 0.113255940917871 
1498	 0.11347658981706 
1499	 0.11372131159501 
1500	 0.113972871144716 
1501	 0.114197126296377 
1502	 0.114404169151888 
1503	 0.11460230062451 
1504	 0.114775611265742 
1505	 0.114992449526483 
1506	 0.115216323691976 
1507	 0.115438685999663 
1508	 0.115697506829938 
1509	 0.115915873741516 
1510	 0.116098535932862 
1511	 0.116313063038826 
1512	 0.116536357167957 
1513	 0.116746926712319 
1514	 0.116959663969744 
1515	 0.117180205470543 
1516	 0.11739931737599 
1517	 0.117610556367677 
1518	 0.117832270714891 
1519	 0.118036828427221 
1520	 0.118226299294207 
1521	 0.118409223534058 
1522	 0.118578273805898 
1523	 0.118767102595455 
1524	 0.118955217691296 
1525	 0.11913998740618 
1526	 0.119348440059103 
1527	 0.119526207955923 
1528	 0.119668302029443 
1529	 0.11983375077481 
1530	 0.120004846382879 
1531	 0.120175397320355 
1532	 0.120346980557364 
1533	 0.12052924499009 
1534	 0.120720938866996 
1535	 0.120895151961697 
1536	 0.121087315411718 
1537	 0.121248707919787 
1538	 0.121370421903738 
1539	 0.121509791878457 
1540	 0.121643423773212 
1541	 0.121779482362021 
1542	 0.121916192782078 
1543	 0.122062525287639 
1544	 0.122214607058955 
1545	 0.122360744593297 
1546	 0.122526184039989 
1547	 0.122666880683312 
1548	 0.122769564944167 
1549	 0.122905580893008 
1550	 0.123060250854023 
1551	 0.123194026209914 
1552	 0.123342982047692 
1553	 0.123475220554043 
1554	 0.123573974393501 
1555	 0.123681631483952 
1556	 0.123782319868542 
1557	 0.123900537465183 
1558	 0.12403403243417 
1559	 0.12415427979912 
1560	 0.124296924981257 
1561	 0.124409433829484 
1562	 0.124482568849548 
1563	 0.12457192766385 
1564	 0.124650042996848 
1565	 0.124739361184161 
1566	 0.124840331099706 
1567	 0.124942459394744 
1568	 0.125069128269521 
1569	 0.125175557077163 
1570	 0.125247367925013 
1571	 0.125320349020834 
1572	 0.125370488821877 
1573	 0.125434819348339 
1574	 0.12554670244437 
1575	 0.125632859363259 
1576	 0.125692116999717 
1577	 0.125751114557472 
1578	 0.125798317232132 
1579	 0.12587180857508 
1580	 0.125969819477839 
1581	 0.126022628605125 
1582	 0.126060380974925 
1583	 0.126138079073591 
1584	 0.126198574722017 
1585	 0.126247320693349 
1586	 0.126311026443613 
1587	 0.126338808218958 
1588	 0.126350463510162 
1589	 0.126403364134313 
1590	 0.126460422868109 
1591	 0.126506184770919 
1592	 0.126592366440892 
1593	 0.126657746236247 
1594	 0.126663037460566 
1595	 0.126685133302729 
1596	 0.126721117064233 
1597	 0.126743653413477 
1598	 0.126802845483872 
1599	 0.126868875673954 
1600	 0.126895509252242 
1601	 0.126913348527921 
1602	 0.126920176635865 
1603	 0.126927726360545 
1604	 0.126927348245668 
1605	 0.126940433802682 
1606	 0.126983123329691 
1607	 0.126999994630911 
1608	 0.127023711079885 
1609	 0.12704473818373 
1610	 0.127034143680351 
1611	 0.127056325949213 
1612	 0.127083902029307 
1613	 0.127130543618055 
1614	 0.127132902778313 
1615	 0.127130994901808 
1616	 0.127124313744255 
1617	 0.127079790477042 
1618	 0.127069088084663 
1619	 0.127081519635674 
1620	 0.127080464814343 
1621	 0.127071438988023 
1622	 0.127074826050239 
1623	 0.127090682982623 
1624	 0.127106704603519 
1625	 0.127107933878841 
1626	 0.127124563708576 
1627	 0.127133391248331 
1628	 0.127125838535713 
1629	 0.12710673926403 
1630	 0.127090289927836 
1631	 0.127093172910042 
1632	 0.127102576281148 
1633	 0.127119051265813 
1634	 0.127126425194887 
1635	 0.127079036386986 
1636	 0.127022673141217 
1637	 0.127017346534311 
1638	 0.126998193280819 
1639	 0.126982762373681 
1640	 0.127019840260321 
1641	 0.127024905246824 
1642	 0.127002887394899 
1643	 0.127018722954479 
1644	 0.127011860409819 
1645	 0.126964831199678 
1646	 0.126963338653902 
1647	 0.126977342386152 
1648	 0.126956721085187 
1649	 0.126934480994812 
1650	 0.126910539731337 
1651	 0.12687672065382 
1652	 0.126847919400247 
1653	 0.126844389002945 
1654	 0.126844497673554 
1655	 0.126820432248305 
1656	 0.126798241713272 
1657	 0.126795211550229 
1658	 0.126764165699905 
1659	 0.126705057366252 
1660	 0.126665567993618 
1661	 0.126603658294773 
1662	 0.126582262883327 
1663	 0.126618894247367 
1664	 0.126586487686831 
1665	 0.126547018709271 
1666	 0.126508021359233 
1667	 0.126429583433612 
1668	 0.126407660765876 
1669	 0.126416881488742 
1670	 0.126379615194395 
1671	 0.126323592448409 
1672	 0.126286976293264 
1673	 0.126231745505006 
1674	 0.126146750128447 
1675	 0.126084820384315 
1676	 0.126028005457313 
1677	 0.12598495231179 
1678	 0.125973969245714 
1679	 0.125957289323371 
1680	 0.125925281176834 
1681	 0.125853862662323 
1682	 0.125796197796481 
1683	 0.125772211790842 
1684	 0.125721424015059 
1685	 0.125696555524364 
1686	 0.125674323128895 
1687	 0.125624270665316 
1688	 0.12559933868173 
1689	 0.125539751842671 
1690	 0.12547056661833 
1691	 0.125439259650721 
1692	 0.125386569272296 
1693	 0.125316734797203 
1694	 0.125221295629135 
1695	 0.125116229602033 
1696	 0.125062568441912 
1697	 0.125006594649018 
1698	 0.125016462886373 
1699	 0.12495985875323 
1700	 0.124820422778243 
1701	 0.124736411175708 
1702	 0.12466283344801 
1703	 0.124593743799114 
1704	 0.124585596651414 
1705	 0.124513878812254 
1706	 0.124363983736238 
1707	 0.124268827222281 
1708	 0.124180219913372 
1709	 0.12408574372496 
1710	 0.124045722539309 
1711	 0.123981291025199 
1712	 0.123854850989923 
1713	 0.123787406515128 
1714	 0.123765220691619 
1715	 0.123695357550935 
1716	 0.123646106673747 
1717	 0.123561472711293 
1718	 0.123414164953349 
1719	 0.123313214800954 
1720	 0.123234639954704 
1721	 0.123130644806032 
1722	 0.123042077774006 
1723	 0.122923596093289 
1724	 0.122736749367662 
1725	 0.122618668703507 
1726	 0.122537980113282 
1727	 0.122445013365578 
1728	 0.122400054747721 
1729	 0.122274766501393 
1730	 0.122104892209796 
1731	 0.121970175523248 
1732	 0.121863052304076 
1733	 0.121748697081085 
1734	 0.121628896372156 
1735	 0.121497903738505 
1736	 0.121321463549751 
1737	 0.121139757277288 
1738	 0.121009206092235 
1739	 0.120870571362163 
1740	 0.120713099806448 
1741	 0.120541208938083 
1742	 0.120383435299844 
1743	 0.120278045413493 
1744	 0.120168259308152 
1745	 0.120089238607176 
1746	 0.11998504542288 
1747	 0.119755845443996 
1748	 0.119536073268517 
1749	 0.119395757815507 
1750	 0.119242384858071 
1751	 0.119087337807667 
1752	 0.118954602358541 
1753	 0.118766069380496 
1754	 0.118585278188601 
1755	 0.118507135104359 
1756	 0.118412567079852 
1757	 0.118257820742785 
1758	 0.11813519700638 
1759	 0.117979917375861 
1760	 0.117785814659858 
1761	 0.117652474111576 
1762	 0.117479124550267 
1763	 0.117314729759551 
1764	 0.117167682796873 
1765	 0.117028311461343 
1766	 0.116908221893032 
1767	 0.116776098098902 
1768	 0.116648781361784 
1769	 0.11656323779449 
1770	 0.116428946794298 
1771	 0.116276878674053 
1772	 0.116148576266262 
1773	 0.115990104049917 
1774	 0.115889082569611 
1775	 0.1158366480251 
1776	 0.11574107277728 
1777	 0.115626993018575 
1778	 0.115495428998155 
1779	 0.11537432222816 
1780	 0.115306003478942 
1781	 0.115283516747424 
1782	 0.115220441010717 
1783	 0.115150238515044 
1784	 0.115047222803992 
1785	 0.114890061477962 
1786	 0.114771983085247 
1787	 0.114673034686401 
1788	 0.114595143191415 
1789	 0.114561924407754 
1790	 0.114492203835162 
1791	 0.114410382015968 
1792	 0.114375650088921 
1793	 0.114332051317193 
1794	 0.114291143656634 
1795	 0.11428742563866 
1796	 0.114281965915028 
1797	 0.114224734627061 
1798	 0.114201996543736 
1799	 0.114207500202682 
1800	 0.11410537367469 
1801	 0.114020202235201 
1802	 0.113954603638772 
1803	 0.113869602276677 
1804	 0.113923415389525 
1805	 0.11392829233488 
1806	 0.11391613922791 
1807	 0.113895212804691 
1808	 0.113859440855271 
1809	 0.113787260110436 
1810	 0.113741798862994 
1811	 0.11365351717716 
1812	 0.113637608635769 
1813	 0.113640100026307 
1814	 0.113640350605799 
1815	 0.113737198500879 
1816	 0.113689630652268 
1817	 0.113637303688803 
1818	 0.113640344925514 
1819	 0.113517517530693 
1820	 0.113462529364234 
1821	 0.113405737834822 
1822	 0.113302397512153 
1823	 0.113267225862703 
1824	 0.113226320604568 
1825	 0.113198409045853 
1826	 0.113177523056525 
1827	 0.113162540517134 
1828	 0.113119764265454 
1829	 0.113035483556575 
1830	 0.113017208446499 
1831	 0.116875852254229 
1832	 0.116752973431935 
1833	 0.116551858676847 
1834	 0.116441139140093 
1835	 0.116406565333764 
1836	 0.116310758345847 
1837	 0.116246332299919 
1838	 0.116119622303019 
1839	 0.115969479323252 
1840	 0.11577475498376 
1841	 0.115607657166204 
1842	 0.115482112784087 
1843	 0.115292536134498 
1844	 0.115035719321629 
1845	 0.114834031654237 
1846	 0.114643767977735 
1847	 0.114416805376664 
1848	 0.114178009604762 
1849	 0.113999367583987 
1850	 0.11376156635419 
1851	 0.113480567967886 
1852	 0.113219409300522 
1853	 0.113026463745188 
1854	 0.112697990186499 
1855	 0.112297439399252 
1856	 0.11189621114052 
1857	 0.111450071440493 
1858	 0.110947379513229 
1859	 0.110462992238581 
1860	 0.109918259749453 
1861	 0.10934513950216 
1862	 0.108797667817673 
1863	 0.108172155866397 
1864	 0.107498325484407 
1865	 0.106838273352912 
1866	 0.106159602779103 
1867	 0.105392360310615 
1868	 0.104606296813913 
1869	 0.103767782593873 
1870	 0.102841510009711 
1871	 0.10190282934403 
1872	 0.100929076425676 
1873	 9.99598491286844E-02 
1874	 9.89464288719446E-02 
1875	 9.79009078166277E-02 
1876	 9.68021070482608E-02 
1877	 9.56886662595878E-02 
1878	 9.45132205879996E-02 
1879	 9.32698437261857E-02 
1880	 9.20955074643712E-02 
1881	 9.07967427905328E-02 
1882	 8.94976887267204E-02 
1883	 8.82766069934653E-02 
1884	 8.69233564812987E-02 
1885	 8.55968325352712E-02 
1886	 8.42618515054411E-02 
1887	 8.29619239875074E-02 
1888	 8.16057699667397E-02 
1889	 8.03599828658741E-02 
1890	 7.91757219344561E-02 
1891	 7.80408730822397E-02 
1892	 7.68921686816191E-02 
1893	 7.57162123891608E-02 
1894	 7.46192406713992E-02 
1895	 7.35898745005137E-02 
1896	 7.26484475399007E-02 
1897	 7.18605166051232E-02 
1898	 7.10264585128617E-02 
1899	 7.02119802678306E-02 
1900	 6.94563727046028E-02 
1901	 6.86699434473712E-02 
1902	 6.79559727434359E-02 
1903	 0.067438119060832 
1904	 6.69495293645509E-02 
1905	 6.65840813394994E-02 
1906	 6.62506833637612E-02 
1907	 6.58605161474486E-02 
1908	 6.54072288211478E-02 
1909	 0.06507169760996 
1910	 6.47493506894646E-02 
1911	 6.44599016224391E-02 
1912	 0.064323344897323 
1913	 6.40809767934259E-02 
1914	 6.38171377608191E-02 
1915	 6.36848011837994E-02 
1916	 6.34754243174473E-02 
1917	 6.33256985255554E-02 
1918	 6.32306396678642E-02 
1919	 6.32138643573686E-02 
1920	 0.063125654710142 
1921	 6.30564978771463E-02 
1922	 6.29689468703026E-02 
1923	 6.28573282669775E-02 
1924	 6.27783040542283E-02 
1925	 6.27483650175598E-02 
1926	 6.27467075234602E-02 
1927	 6.26858679214723E-02 
1928	 6.25811195883364E-02 
1929	 6.25112461881394E-02 
1930	 6.24908739893023E-02 
1931	 6.24847705890349E-02 
1932	 6.25488092182307E-02 
1933	 6.25987237872688E-02 
1934	 6.25883808389166E-02 
1935	 6.25730900405188E-02 
1936	 6.25283829593672E-02 
1937	 6.25247934031015E-02 
1938	 6.26447906042471E-02 
1939	 0.062740172441512 
1940	 6.27703988715457E-02 
1941	 6.28181871904681E-02 
1942	 6.28798670818434E-02 
1943	 6.28933256883739E-02 
1944	 6.29172383973371E-02 
1945	 6.30390289507483E-02 
1946	 6.31858819518304E-02 
1947	 6.32653042862724E-02 
1948	 6.33042781697138E-02 
1949	 0.063374678025137 
1950	 6.34648444306189E-02 
1951	 6.35064213572144E-02 
1952	 6.35768394556825E-02 
1953	 6.37194149001095E-02 
1954	 6.38311918923564E-02 
1955	 6.39127311367715E-02 
1956	 6.40471325368533E-02 
1957	 6.42106128833214E-02 
1958	 6.42703172761719E-02 
1959	 6.43561239870869E-02 
1960	 6.45217555543813E-02 
1961	 6.46759222877438E-02 
1962	 6.48098743437466E-02 
1963	 6.49743581477014E-02 
1964	 6.51059572772771E-02 
1965	 6.51909324856544E-02 
1966	 0.065340947309024 
1967	 6.55020702906915E-02 
1968	 6.56829613137054E-02 
1969	 0.065854273668706 
1970	 6.60563340493667E-02 
1971	 6.61747501855529E-02 
1972	 6.62487729587635E-02 
1973	 6.64029452147285E-02 
1974	 6.65717278828934E-02 
1975	 6.67269578813836E-02 
1976	 6.69113392295786E-02 
1977	 6.70636702388213E-02 
1978	 0.067225148845052 
1979	 6.73404115895938E-02 
1980	 6.75499573259484E-02 
1981	 6.77691274059674E-02 
1982	 6.79366301171057E-02 
1983	 6.81049242521042E-02 
1984	 6.82759074645098E-02 
1985	 6.84718279599662E-02 
1986	 6.86707758192766E-02 
1987	 6.88665334455466E-02 
1988	 6.90486585386846E-02 
1989	 6.92003243723107E-02 
1990	 6.93751730293236E-02 
1991	 0.069553850005033 
1992	 6.97419074701819E-02 
1993	 6.99148699341752E-02 
1994	 7.00758594780248E-02 
1995	 7.02637849602773E-02 
1996	 7.04894436805099E-02 
1997	 7.06732370542551E-02 
1998	 7.08519030813764E-02 
1999	 7.10491452801403E-02 
2000	 7.12392533578472E-02 
2001	 7.14614687608287E-02 
2002	 7.17057605995496E-02 
2003	 7.19273105728424E-02 
2004	 0.072133870772554 
2005	 7.22797813024562E-02 
2006	 7.24734861927586E-02 
2007	 7.26887027693332E-02 
2008	 7.28990631667532E-02 
2009	 7.31100889938796E-02 
2010	 7.33390998688215E-02 
2011	 7.35596606867526E-02 
2012	 7.37313143969392E-02 
2013	 7.38614675849091E-02 
2014	 7.40191269331577E-02 
2015	 7.42003249789935E-02 
2016	 7.44211866266007E-02 
2017	 7.46213778391536E-02 
2018	 7.48608182090154E-02 
2019	 7.50706046446933E-02 
2020	 7.52687325509242E-02 
2021	 7.53944297310359E-02 
2022	 7.55497374202121E-02 
2023	 7.57458467736189E-02 
2024	 7.59058181192303E-02 
2025	 7.60861516905033E-02 
2026	 7.63283176882803E-02 
2027	 7.65620957033519E-02 
2028	 7.67077934913092E-02 
2029	 7.69045661330078E-02 
2030	 7.71259345829388E-02 
2031	 7.73724514502325E-02 
2032	 7.75511066121563E-02 
2033	 7.77462628170389E-02 
2034	 7.79213780529822E-02 
2035	 7.80290950878901E-02 
2036	 7.81516820319788E-02 
2037	 7.83674312294829E-02 
2038	 7.85595436974257E-02 
2039	 7.87152975714816E-02 
2040	 7.89108710316662E-02 
2041	 7.90922484602993E-02 
2042	 0.079244197617262 
2043	 7.93921977962818E-02 
2044	 7.95749070060961E-02 
2045	 7.97314524860072E-02 
2046	 7.98366697574409E-02 
2047	 7.99754498929367E-02 
2048	 8.01374188400762E-02 
2049	 8.02956233261345E-02 
2050	 8.04222488997294E-02 
2051	 8.05915211252075E-02 
2052	 8.07669852604768E-02 
2053	 8.09197387752406E-02 
2054	 8.10851486022254E-02 
2055	 8.12383728056238E-02 
2056	 8.13614618267305E-02 
2057	 8.14968143218555E-02 
2058	 8.16453190833357E-02 
2059	 8.17953004148025E-02 
2060	 8.19289190107576E-02 
2061	 8.20585183154941E-02 
2062	 8.21984919099343E-02 
2063	 8.23137388872261E-02 
2064	 8.24391846178987E-02 
2065	 8.25843999142815E-02 
2066	 8.27600220892512E-02 
2067	 8.28795123778719E-02 
2068	 8.30294598387247E-02 
2069	 8.31751944984212E-02 
2070	 8.32679287226595E-02 
2071	 8.33791948919756E-02 
2072	 0.08354514132123 
2073	 8.37539825437398E-02 
2074	 8.39364045932106E-02 
2075	 0.084071459280402 
2076	 8.41348842755015E-02 
2077	 8.42623418682697E-02 
2078	 8.44059620769353E-02 
2079	 8.45004797964585E-02 
2080	 8.45919232841412E-02 
2081	 0.084706916658982 
2082	 8.47911086931586E-02 
2083	 8.49145060932078E-02 
2084	 0.085059316163328 
2085	 8.51829973443543E-02 
2086	 8.52790706502645E-02 
2087	 8.53413792063712E-02 
2088	 8.54149081494553E-02 
2089	 8.55614891349594E-02 
2090	 8.57043750371583E-02 
2091	 8.58484180925823E-02 
2092	 8.59702645894649E-02 
2093	 8.61191047219497E-02 
2094	 8.62633526401604E-02 
2095	 8.63798918065268E-02 
2096	 8.65050946450956E-02 
2097	 8.66697694783806E-02 
2098	 8.67787808009823E-02 
2099	 8.67904570817458E-02 
2100	 8.68602636470026E-02 
2101	 8.70222710057211E-02 
2102	 8.71094083594382E-02 
2103	 8.71950960737415E-02 
2104	 8.73392127282958E-02 
2105	 8.74205197144472E-02 
2106	 0.087483470997857 
2107	 8.75420738621049E-02 
2108	 8.75799317275883E-02 
2109	 8.76548945437867E-02 
2110	 8.77436401301804E-02 
2111	 8.78385893174918E-02 
2112	 8.79486888128518E-02 
2113	 8.80804480906953E-02 
2114	 8.82410497167447E-02 
2115	 8.83588981462979E-02 
2116	 8.84245420816416E-02 
2117	 8.85814739745245E-02 
2118	 8.86754892454922E-02 
2119	 8.86743621729861E-02 
2120	 8.87921001206166E-02 
2121	 8.89321519976516E-02 
2122	 8.89786325628353E-02 
2123	 8.90008588784859E-02 
2124	 8.90704956697938E-02 
2125	 8.91482900507575E-02 
2126	 8.91879553344725E-02 
2127	 8.92542177031314E-02 
2128	 8.92902621559699E-02 
2129	 8.92537621319836E-02 
2130	 8.92242740261145E-02 
2131	 8.91495217620645E-02 
2132	 8.92406362018189E-02 
2133	 8.92747775104542E-02 
2134	 8.91698722658291E-02 
2135	 8.91868534156162E-02 
2136	 8.91894552358382E-02 
2137	 8.91057628455741E-02 
2138	 8.90821368120373E-02 
2139	 8.90168368638718E-02 
2140	 8.88755444573063E-02 
2141	 8.87867836878812E-02 
2142	 8.87246198492264E-02 
2143	 0.088648130468111 
2144	 8.85895967330206E-02 
2145	 8.84879461932569E-02 
2146	 8.83270458246884E-02 
2147	 8.82155335104927E-02 
2148	 8.81413316178279E-02 
2149	 8.80332766124141E-02 
2150	 8.79446569437613E-02 
2151	 8.78187030930817E-02 
2152	 8.76168334833193E-02 
2153	 8.74004457508605E-02 
2154	 8.72020906552773E-02 
2155	 8.69727689598403E-02 
2156	 8.67456425858315E-02 
2157	 8.65305851631804E-02 
2158	 8.62512561661219E-02 
2159	 8.59227467759422E-02 
2160	 8.56758633480237E-02 
2161	 8.53408603108815E-02 
2162	 8.49656559450897E-02 
2163	 8.45409515574244E-02 
2164	 8.41942520634808E-02 
2165	 8.38189803111473E-02 
2166	 8.34372088496829E-02 
2167	 0.083105828232269 
2168	 8.27614301574653E-02 
2169	 8.23770761114637E-02 
2170	 8.19997306401755E-02 
2171	 8.16475309148993E-02 
2172	 8.12925295848965E-02 
2173	 8.09920206367219E-02 
2174	 8.07259543253157E-02 
2175	 8.04739647844417E-02 
2176	 8.02038647450041E-02 
2177	 7.98434759241703E-02 
2178	 7.95308865952227E-02 
2179	 7.92777333217952E-02 
2180	 7.90343761127173E-02 
2181	 7.88671483549919E-02 
2182	 0.078624126433465 
2183	 7.84577425207429E-02 
2184	 7.83749797591163E-02 
2185	 7.82690540241642E-02 
2186	 7.81570614491376E-02 
2187	 7.80936829451008E-02 
2188	 7.80899471446171E-02 
2189	 7.79859816120878E-02 
2190	 7.78427687177067E-02 
2191	 7.77476160410259E-02 
2192	 7.76623081329905E-02 
2193	 0.077513544238784 
2194	 0.077240844198671 
2195	 7.70385990344427E-02 
2196	 7.68169462787637E-02 
2197	 7.63973730629999E-02 
2198	 7.60172441752861E-02 
2199	 7.56871879133913E-02 
2200	 7.52003769453228E-02 
2201	 7.46805603740787E-02 
2202	 7.43109811798836E-02 
2203	 7.38766719155466E-02 
2204	 7.34709428791135E-02 
2205	 0.073036257159795 
2206	 7.27636516870777E-02 
2207	 7.24603708168942E-02 
2208	 7.24154721775537E-02 
2209	 7.26212876766716E-02 
2210	 7.27702478745747E-02 
2211	 7.30818569056373E-02 
2212	 7.33513680542269E-02 
2213	 7.36375225518522E-02 
2214	 7.38797359743725E-02 
2215	 7.41177196741222E-02 
2216	 7.43458045614613E-02 
2217	 7.46331548647092E-02 
2218	 7.48386848223288E-02 
2219	 7.49776182512116E-02 
2220	 7.52154284107946E-02 
2221	 0.075367686133593 
2222	 7.54297278650098E-02 
2223	 7.55962991889113E-02 
2224	 7.57940942941136E-02 
2225	 7.59318342654237E-02 
2226	 7.60282757963626E-02 
2227	 7.60509988125177E-02 
2228	 7.60901948662427E-02 
2229	 7.62317458649675E-02 
2230	 7.64104533953473E-02 
2231	 7.64930055714706E-02 
2232	 7.65738030396236E-02 
2233	 0.076605429545822 
2234	 7.64962572419628E-02 
2235	 7.65306128553282E-02 
2236	 7.66944162772481E-02 
2237	 7.67424152095719E-02 
2238	 7.67921348471561E-02 
2239	 7.67539649527269E-02 
2240	 7.65677048954619E-02 
2241	 0.076512405090238 
2242	 7.65142301963719E-02 
2243	 7.64316938048725E-02 
2244	 7.64050862535278E-02 
2245	 7.64127343616847E-02 
2246	 7.64710371086179E-02 
2247	 7.65244049399722E-02 
2248	 7.64685325630102E-02 
2249	 7.64123516766737E-02 
2250	 7.63309867684529E-02 
2251	 7.61826915334648E-02 
2252	 7.61546995782097E-02 
2253	 7.62199682738629E-02 
2254	 7.61661050034335E-02 
2255	 7.61199544130797E-02 
2256	 7.61716200126501E-02 
2257	 7.62036560595333E-02 
2258	 7.62043273079046E-02 
2259	 7.61275242054369E-02 
2260	 7.61228503076758E-02 
2261	 7.61483220908398E-02 
2262	 7.61144355465145E-02 
2263	 7.60782189054327E-02 
2264	 7.60951628669143E-02 
2265	 7.60515015185496E-02 
2266	 7.60186535806028E-02 
2267	 7.60870110832148E-02 
2268	 7.60981658145062E-02 
2269	 7.60403944354732E-02 
2270	 7.60285510606612E-02 
2271	 0.076084276384891 
2272	 7.60399331569802E-02 
2273	 7.59473263444492E-02 
2274	 7.58260132490149E-02 
2275	 7.57320603484467E-02 
2276	 0.075702968960757 
2277	 7.57068264208176E-02 
2278	 7.56953601389022E-02 
2279	 7.56381068752955E-02 
2280	 0.075499863907688 
2281	 7.54322236311213E-02 
2282	 0.075422792122475 
2283	 0.075354589423234 
2284	 7.52324369616085E-02 
2285	 7.50934282381518E-02 
2286	 0.074990604603086 
2287	 7.48721091664062E-02 
2288	 7.48142418867673E-02 
2289	 7.47849896827583E-02 
2290	 7.46509566255866E-02 
2291	 7.44978259332593E-02 
2292	 7.43723585456223E-02 
2293	 7.42925843829069E-02 
2294	 7.42747176608977E-02 
2295	 7.41905774788804E-02 
2296	 7.41059056566234E-02 
2297	 0.074077157893007 
2298	 7.40161008904226E-02 
2299	 7.39610346201164E-02 
2300	 7.40266921398553E-02 
2301	 7.39850316228615E-02 
2302	 7.38064819329489E-02 
2303	 7.37455224140111E-02 
2304	 7.37646794590022E-02 
2305	 7.37186763600924E-02 
2306	 7.36509145313044E-02 
2307	 7.36085403275904E-02 
2308	 7.35406099375422E-02 
2309	 0.07349390135409 
2310	 7.35544787975473E-02 
2311	 7.34897104358011E-02 
2312	 7.33474621984407E-02 
2313	 7.31628947236085E-02 
2314	 7.30579627905875E-02 
2315	 7.29996457666643E-02 
2316	 7.30600087659271E-02 
2317	 7.31383587089832E-02 
2318	 7.30536193406368E-02 
2319	 7.29764297620882E-02 
2320	 7.29133215769466E-02 
2321	 7.28317312010014E-02 
2322	 7.28197281887513E-02 
2323	 7.28348705082218E-02 
2324	 7.27583644354674E-02 
2325	 7.26500569662296E-02 
2326	 7.26894970484926E-02 
2327	 7.26329947137383E-02 
2328	 7.23739884553608E-02 
2329	 7.21883697812974E-02 
2330	 7.20732120087673E-02 
2331	 7.19524133042238E-02 
2332	 7.19474441268449E-02 
2333	 7.20283354612475E-02 
2334	 7.19454909643129E-02 
2335	 7.16190068584606E-02 
2336	 7.13546093530643E-02 
2337	 0.071311581689713 
2338	 7.12181077044616E-02 
2339	 7.11338340140727E-02 
2340	 7.11444528041899E-02 
2341	 7.10350781827213E-02 
2342	 7.09081381785643E-02 
2343	 7.08228726387941E-02 
2344	 7.07047004969388E-02 
2345	 7.05881922548799E-02 
2346	 7.03804412402399E-02 
2347	 7.01402905004235E-02 
2348	 7.00346015279686E-02 
2349	 0.070036013457484 
2350	 7.00009280801162E-02 
2351	 7.00829725697796E-02 
2352	 6.99701405231269E-02 
2353	 0.069734994412549 
2354	 6.95535905302954E-02 
2355	 6.92730685069427E-02 
2356	 0.069136415394407 
2357	 6.90652761379455E-02 
2358	 0.068956196615643 
2359	 6.89227509528689E-02 
2360	 6.88847910855545E-02 
2361	 6.88204919047694E-02 
2362	 6.87824300912395E-02 
2363	 6.88142746800573E-02 
2364	 0.06871293727616 
2365	 6.85468222525628E-02 
2366	 6.84019124418044E-02 
2367	 6.82074171753368E-02 
2368	 6.79996861838276E-02 
2369	 6.77394948605296E-02 
2370	 0.067637922254967 
2371	 6.76628723432991E-02 
2372	 6.74462391534598E-02 
2373	 6.71296523683273E-02 
2374	 6.69501035660066E-02 
2375	 6.67150779467984E-02 
2376	 6.65329001536012E-02 
2377	 6.64885699669141E-02 
2378	 6.64501939999071E-02 
2379	 6.62985165885785E-02 
2380	 0.06596796628758 
2381	 6.56415832119703E-02 
2382	 6.54531289764967E-02 
2383	 6.53533384018634E-02 
2384	 6.53316972567442E-02 
2385	 6.54563941652205E-02 
2386	 6.54028048824273E-02 
2387	 6.52359989403091E-02 
2388	 6.49931923226356E-02 
2389	 6.45967929925799E-02 
2390	 6.44602355098003E-02 
2391	 6.44693625735658E-02 
2392	 0.064404171491588 
2393	 6.44280404453294E-02 
2394	 6.44042009689082E-02 
2395	 6.41857311481506E-02 
2396	 6.39151676247211E-02 
2397	 6.37409888235576E-02 
2398	 6.36930586391344E-02 
2399	 6.37138926550544E-02 
2400	 6.38652501938372E-02 
2401	 6.39269243498691E-02 
2402	 6.36812822721034E-02 
2403	 6.36073991037362E-02 
2404	 6.35130689078491E-02 
2405	 0.062961034276994 
2406	 6.26553100563828E-02 
2407	 6.26869409254005E-02 
2408	 0.062436715730604 
2409	 6.22435436609683E-02 
2410	 6.23903138047627E-02 
2411	 6.22020266990945E-02 
2412	 6.18643126203004E-02 
2413	 6.20480183153355E-02 
2414	 6.22009295086899E-02 
2415	 6.19577969797392E-02 
2416	 0.061586027128284 
2417	 6.11616999516357E-02 
2418	 6.08198206265433E-02 
2419	 6.06755256449226E-02 
2420	 6.05129720570569E-02 
2421	 6.03665810873446E-02 
2422	 6.03470368832837E-02 
2423	 6.02677528030852E-02 
2424	 6.01216007038753E-02 
2425	 5.98256805855999E-02 
2426	 5.95330351395783E-02 
2427	 5.93907864045965E-02 
2428	 5.93026684371235E-02 
2429	 5.93429947940342E-02 
2430	 5.92986761808171E-02 
2431	 5.89897103466789E-02 
2432	 5.86661624412531E-02 
2433	 5.85856817186574E-02 
2434	 5.85349026142214E-02 
2435	 5.82944682050803E-02 
2436	 5.81519329421046E-02 
2437	 5.81069013801156E-02 
2438	 5.78107096787597E-02 
2439	 5.73964568681801E-02 
2440	 5.71403892215072E-02 
2441	 5.66310269833876E-02 
2442	 5.62156971619857E-02 
2443	 5.63678716005714E-02 
2444	 5.64636415720024E-02 
2445	 0.056848706417119 
2446	 0.057077192116373 
2447	 5.65107590967797E-02 
2448	 5.64160506702699E-02 
2449	 5.63736900326047E-02 
2450	 5.58884742719213E-02 
2451	 5.62988346060386E-02 
2452	 5.64334387093255E-02 
2453	 5.56075583517332E-02 
2454	 5.55100831304337E-02 
2455	 5.50961723749024E-02 
2456	 5.49856621854867E-02 
2457	 5.59496703370946E-02 
2458	 5.58774822449657E-02 
2459	 5.51673162701999E-02 
2460	 0.054849675463268 
2461	 5.40278702679808E-02 
2462	 5.38115072361269E-02 
2463	 5.42935488954194E-02 
2464	 5.42503900357183E-02 
2465	 0.054276134935308 
2466	 5.41488944401809E-02 
2467	 5.36456131585559E-02 
2468	 5.33145083327851E-02 
2469	 5.28659446464316E-02 
2470	 5.28131538448412E-02 
2471	 5.29726754483442E-02 
2472	 5.30085426307544E-02 
2473	 5.35016614414007E-02 
2474	 0.053473607305771 
2475	 5.28828083809786E-02 
2476	 5.27683251997383E-02 
2477	 5.28626097151307E-02 
2478	 5.26819855398594E-02 
2479	 5.27312690061017E-02 
2480	 5.24161379681499E-02 
2481	 5.11780461717257E-02 
2482	 5.11622079877629E-02 
2483	 5.12533416764047E-02 
2484	 5.09868487797102E-02 
2485	 5.14279560296895E-02 
2486	 5.11803096218769E-02 
2487	 5.06457618576272E-02 
2488	 5.06201700718477E-02 
2489	 5.05502720519144E-02 
2490	 5.07761725512101E-02 
2491	 5.09386513167413E-02 
2492	 5.08964953852663E-02 
2493	 5.10983164457396E-02 
2494	 5.13918889982932E-02 
2495	 5.11385116620232E-02 
2496	 5.06200956549432E-02 
2497	 5.04472986326123E-02 
2498	 4.98906133877475E-02 
2499	 4.94291147093479E-02 
2500	 4.94674414504657E-02 
