Wavelength	WH1059F00000.asd
350	 0.078900493967361 
351	 8.61228653134556E-02 
352	 6.36710596554102E-02 
353	 6.05676782545712E-02 
354	 7.00268059287569E-02 
355	 6.99926842343638E-02 
356	 5.04451840884758E-02 
357	 6.17152200023841E-02 
358	 0.086403723429165 
359	 7.90590039823226E-02 
360	 8.31574794136034E-02 
361	 7.99776089372751E-02 
362	 6.96360620058817E-02 
363	 7.70458853087499E-02 
364	 7.44326642314141E-02 
365	 7.12793678148195E-02 
366	 7.56013559094571E-02 
367	 8.12917571762265E-02 
368	 7.92705571527424E-02 
369	 7.53564672365142E-02 
370	 7.64614667441007E-02 
371	 7.19352355392956E-02 
372	 7.31986357913432E-02 
373	 7.85763765767411E-02 
374	 7.87291819330938E-02 
375	 7.75679881123188E-02 
376	 7.34380556882241E-02 
377	 6.87534683335165E-02 
378	 7.13076341363138E-02 
379	 7.65823876029733E-02 
380	 8.01282226628347E-02 
381	 7.92905111831308E-02 
382	 7.40017927273186E-02 
383	 7.86278007386426E-02 
384	 0.08565779309419 
385	 8.27666707332461E-02 
386	 8.30145068565345E-02 
387	 8.25983963320868E-02 
388	 8.13261543076886E-02 
389	 8.26107244403074E-02 
390	 8.29026193412655E-02 
391	 8.34792164013767E-02 
392	 0.085412850466267 
393	 8.83198912239636E-02 
394	 8.81330654746355E-02 
395	 8.74757048989058E-02 
396	 8.93336937484713E-02 
397	 8.99216150282543E-02 
398	 9.00770350339459E-02 
399	 8.96596517749025E-02 
400	 8.82113210750973E-02 
401	 8.76081536641777E-02 
402	 8.91593921731546E-02 
403	 9.15733811247533E-02 
404	 9.06871102105574E-02 
405	 9.09574321852551E-02 
406	 0.090545993195214 
407	 0.088258233554875 
408	 8.83185151472176E-02 
409	 8.91873336235632E-02 
410	 9.11557681671473E-02 
411	 9.44032296232068E-02 
412	 9.43895216690422E-02 
413	 9.28531768655886E-02 
414	 0.091538581412526 
415	 0.091600564337311 
416	 9.29254502736217E-02 
417	 9.42474184854238E-02 
418	 9.48131946090043E-02 
419	 0.095280962270609 
420	 9.53820965392482E-02 
421	 9.57141920710236E-02 
422	 9.66771730947822E-02 
423	 9.65336123386396E-02 
424	 9.67313503297966E-02 
425	 9.68422653347945E-02 
426	 9.53343180866572E-02 
427	 9.67333208398341E-02 
428	 9.78253787052293E-02 
429	 9.73331212443188E-02 
430	 0.099145702858678 
431	 0.100276911552194 
432	 0.10029515350308 
433	 9.98701667160561E-02 
434	 0.100883978428422 
435	 0.101163082695814 
436	 0.100924318022121 
437	 0.10178835489197 
438	 0.102369995878189 
439	 0.102509701223997 
440	 0.102607218908324 
441	 0.103689348799834 
442	 0.103850424152093 
443	 0.103776361370739 
444	 0.104443519203105 
445	 0.105351335001674 
446	 0.106018160707372 
447	 0.106289446526385 
448	 0.106298056962364 
449	 0.106635373472895 
450	 0.107153976077511 
451	 0.107755257304113 
452	 0.108580431027362 
453	 0.108810380462898 
454	 0.108949018686938 
455	 0.109509864284299 
456	 0.109747184178012 
457	 0.109854874576809 
458	 0.110140933945574 
459	 0.110873981353301 
460	 0.111387259825518 
461	 0.111829643984673 
462	 0.112139381099748 
463	 0.111763465819247 
464	 0.111716011462658 
465	 0.112483613458305 
466	 0.113874514154867 
467	 0.113986702643999 
468	 0.11417444539398 
469	 0.114647077253694 
470	 0.114840830131771 
471	 0.114788375184776 
472	 0.114875367136375 
473	 0.115312087654595 
474	 0.115966155322393 
475	 0.116668127250037 
476	 0.117064866247339 
477	 0.117026822063134 
478	 0.117398325273541 
479	 0.117882758108228 
480	 0.118246865006894 
481	 0.118366357713977 
482	 0.118580605332156 
483	 0.118915715363783 
484	 0.119287634164188 
485	 0.119490840393659 
486	 0.119985364073451 
487	 0.120570139156013 
488	 0.120924912770503 
489	 0.121187267597199 
490	 0.121761013216252 
491	 0.122297691362616 
492	 0.121985700664259 
493	 0.122513158933029 
494	 0.12336447057239 
495	 0.123805659400048 
496	 0.123260226696714 
497	 0.123903131286044 
498	 0.12492645804869 
499	 0.124924070910338 
500	 0.125463851126036 
501	 0.125888126300676 
502	 0.126117789160573 
503	 0.126663630041559 
504	 0.126824015060238 
505	 0.127343668500697 
506	 0.128458245944777 
507	 0.1286035330119 
508	 0.128602586880959 
509	 0.128762931485052 
510	 0.129140684028653 
511	 0.129502896474454 
512	 0.129791437562943 
513	 0.130179230532592 
514	 0.131045240339117 
515	 0.13151128359188 
516	 0.131648996375771 
517	 0.131842895823155 
518	 0.132764978220166 
519	 0.133378125884118 
520	 0.133639154156875 
521	 0.133990684475299 
522	 0.134347783285903 
523	 0.134666417015849 
524	 0.135035037371627 
525	 0.135717701325339 
526	 0.136114253632381 
527	 0.13625090670665 
528	 0.136440519870467 
529	 0.137429905873689 
530	 0.137889102528584 
531	 0.13794709108987 
532	 0.138605275101439 
533	 0.139395265924874 
534	 0.13993349464633 
535	 0.14016102145347 
536	 0.140533654824408 
537	 0.140913095519955 
538	 0.141316318616371 
539	 0.14178536350691 
540	 0.142310617715033 
541	 0.142851619993213 
542	 0.143350310084625 
543	 0.143749383961486 
544	 0.144212917139998 
545	 0.144664978102414 
546	 0.145057237128971 
547	 0.145485411864306 
548	 0.145998761204793 
549	 0.146534870015983 
550	 0.147005285420556 
551	 0.147465217140306 
552	 0.147931879542997 
553	 0.148398857059858 
554	 0.148835723329666 
555	 0.149147301064751 
556	 0.149415852046306 
557	 0.149725611104838 
558	 0.150030473850327 
559	 0.150492394280854 
560	 0.151038918887911 
561	 0.151478763898105 
562	 0.151811808654214 
563	 0.152091400758777 
564	 0.152372078962376 
565	 0.152689200723613 
566	 0.153266215766888 
567	 0.153891020699612 
568	 0.1543228454335 
569	 0.15473675071349 
570	 0.15512551859519 
571	 0.155506403948996 
572	 0.155907918182632 
573	 0.15623982587106 
574	 0.156545238702102 
575	 0.15685923921298 
576	 0.157127462039234 
577	 0.157686855963201 
578	 0.158287311242694 
579	 0.158566500530818 
580	 0.158890751993482 
581	 0.159246721949755 
582	 0.15959373721164 
583	 0.159885368107639 
584	 0.16013769013688 
585	 0.16049576240621 
586	 0.160985909322743 
587	 0.161243688386571 
588	 0.161488254657411 
589	 0.161795829444323 
590	 0.162123685308792 
591	 0.162134459743651 
592	 0.162022140901186 
593	 0.161994816519339 
594	 0.162202413505561 
595	 0.162419643128374 
596	 0.162601910534489 
597	 0.162776150783679 
598	 0.163046387104944 
599	 0.163268509769997 
600	 0.163433531587895 
601	 0.163627297421311 
602	 0.163871657241303 
603	 0.16405551083042 
604	 0.164167345615033 
605	 0.164419544240815 
606	 0.164619307462524 
607	 0.164766934238493 
608	 0.16490801326059 
609	 0.16495780518175 
610	 0.165107372209684 
611	 0.165331497265922 
612	 0.165411902580002 
613	 0.165726093486128 
614	 0.166013486053189 
615	 0.166096010706051 
616	 0.166310260599263 
617	 0.166428248464738 
618	 0.166532542480592 
619	 0.166796148150724 
620	 0.166997512645146 
621	 0.167192331709975 
622	 0.167384163582809 
623	 0.167484627747755 
624	 0.167609869520207 
625	 0.167772954707071 
626	 0.167953474804149 
627	 0.168116442521596 
628	 0.16829062902261 
629	 0.16845705870868 
630	 0.168583004313066 
631	 0.168810057633674 
632	 0.169027696102474 
633	 0.169162868316406 
634	 0.169253903966042 
635	 0.169408099871702 
636	 0.169535199059452 
637	 0.169573605739387 
638	 0.169903594229727 
639	 0.170136707707545 
640	 0.1702124333475 
641	 0.170360243240807 
642	 0.170500218730713 
643	 0.170669345693669 
644	 0.170857008038737 
645	 0.170897908362372 
646	 0.171025143609589 
647	 0.171187414630979 
648	 0.171259890094336 
649	 0.171382214473244 
650	 0.171537380094372 
651	 0.171708159304015 
652	 0.171886825771827 
653	 0.172013079848845 
654	 0.172152271209048 
655	 0.172338586412234 
656	 0.172436350083508 
657	 0.172597900701184 
658	 0.172783216460994 
659	 0.17288272040324 
660	 0.173040909431898 
661	 0.173175901518493 
662	 0.17326318120561 
663	 0.173378840467597 
664	 0.1735377802133 
665	 0.173675460116141 
666	 0.173757201755744 
667	 0.173925380254751 
668	 0.174061208344512 
669	 0.174161042399658 
670	 0.174293433557357 
671	 0.174470899902945 
672	 0.174641839163993 
673	 0.174778315826843 
674	 0.174904747571336 
675	 0.174977491868842 
676	 0.175017740702264 
677	 0.175072865226663 
678	 0.17521397430605 
679	 0.175293274342628 
680	 0.175390519489147 
681	 0.175706366375543 
682	 0.175717996896299 
683	 0.175674283949394 
684	 0.175769970617265 
685	 0.175877148646656 
686	 0.176088080200375 
687	 0.176271017205447 
688	 0.176293984562063 
689	 0.176364537501788 
690	 0.176535185126121 
691	 0.176731762105504 
692	 0.176796757184655 
693	 0.176951967946932 
694	 0.17710279240535 
695	 0.177189689860565 
696	 0.177343063527569 
697	 0.177499033545804 
698	 0.177638571887179 
699	 0.177752482165299 
700	 0.177799324311139 
701	 0.17788460279024 
702	 0.178018475238483 
703	 0.178120816445482 
704	 0.178329067275838 
705	 0.178489904180478 
706	 0.17852563392851 
707	 0.178649519930463 
708	 0.178806998458141 
709	 0.17895579999954 
710	 0.179052296933342 
711	 0.179040451052552 
712	 0.17912947475802 
713	 0.179347543738276 
714	 0.179523300543051 
715	 0.179522215585329 
716	 0.179561271821951 
717	 0.17975837994158 
718	 0.179811908108662 
719	 0.179966878919029 
720	 0.180152744361358 
721	 0.180217942800003 
722	 0.18033112137722 
723	 0.180423128890372 
724	 0.18047239642413 
725	 0.180523194337097 
726	 0.180668905713832 
727	 0.180808256609337 
728	 0.180864241171049 
729	 0.180899051886774 
730	 0.181020334980262 
731	 0.181157675671605 
732	 0.181201362484797 
733	 0.181274184022156 
734	 0.181424335654646 
735	 0.181580370863466 
736	 0.18157578198371 
737	 0.181589831886488 
738	 0.181691316897667 
739	 0.181847084381585 
740	 0.181835510907137 
741	 0.181892613234817 
742	 0.182004596304861 
743	 0.182078167226769 
744	 0.182124124459775 
745	 0.182205511037739 
746	 0.182318636960006 
747	 0.182399827124359 
748	 0.182462329427228 
749	 0.182506372305568 
750	 0.182558616692098 
751	 0.182712589947164 
752	 0.182734692969573 
753	 0.182750591886469 
754	 0.182920163669704 
755	 0.182973543239307 
756	 0.1829844140309 
757	 0.183032137476038 
758	 0.183172662739952 
759	 0.183265668825904 
760	 0.183300833533487 
761	 0.183330218697362 
762	 0.183476742485604 
763	 0.183561806209251 
764	 0.183576095621726 
765	 0.183575561833044 
766	 0.183645991886784 
767	 0.183752187261436 
768	 0.183841589093492 
769	 0.183868471742687 
770	 0.183923810748416 
771	 0.183985782167001 
772	 0.184013939325812 
773	 0.183963773992749 
774	 0.184031815248158 
775	 0.184140454730115 
776	 0.184189696291631 
777	 0.1842083394278 
778	 0.184281986626701 
779	 0.184366564754455 
780	 0.184391355720608 
781	 0.184536721138181 
782	 0.184590925901923 
783	 0.184544627914388 
784	 0.184600198946745 
785	 0.184612908218628 
786	 0.184661638221463 
787	 0.184762319599877 
788	 0.184721959082594 
789	 0.1847622679496 
790	 0.184838506631957 
791	 0.184855185918502 
792	 0.184897033281681 
793	 0.184917054290307 
794	 0.184931855616118 
795	 0.184993644806277 
796	 0.185058388573584 
797	 0.185087100945933 
798	 0.185090269874468 
799	 0.185140213386217 
800	 0.185172768761153 
801	 0.185261088040899 
802	 0.185402303115071 
803	 0.185295941224411 
804	 0.185251938240387 
805	 0.185315297560317 
806	 0.18540108297101 
807	 0.185394967328573 
808	 0.18536428313003 
809	 0.185355385170765 
810	 0.185389807651281 
811	 0.185551534474343 
812	 0.18562632841139 
813	 0.185548154439314 
814	 0.185547322841054 
815	 0.185546868252891 
816	 0.185559647452638 
817	 0.185591380051512 
818	 0.185558717662264 
819	 0.185612852076965 
820	 0.185708850119201 
821	 0.185727647269151 
822	 0.185710399784763 
823	 0.185678417331393 
824	 0.185655820335766 
825	 0.185668920941744 
826	 0.185760924335657 
827	 0.185822355963971 
828	 0.185815312874659 
829	 0.185850673269147 
830	 0.185852360106563 
831	 0.18582636432643 
832	 0.185802943727616 
833	 0.185817165029063 
834	 0.185854396746458 
835	 0.185917742446836 
836	 0.185994995315021 
837	 0.185961311818157 
838	 0.185959470996111 
839	 0.185983874821382 
840	 0.185918946394582 
841	 0.185891311492082 
842	 0.185909323062747 
843	 0.185934890396351 
844	 0.185894924887486 
845	 0.185922003676464 
846	 0.185978637263852 
847	 0.185998360309959 
848	 0.185926202527687 
849	 0.186032402541339 
850	 0.186104100054587 
851	 0.185914905641729 
852	 0.185895994518383 
853	 0.185916977610322 
854	 0.185908796797059 
855	 0.185877837128157 
856	 0.186055980972342 
857	 0.186091392656568 
858	 0.18593021402305 
859	 0.185857889841972 
860	 0.185997254211154 
861	 0.186055132653683 
862	 0.185934348918187 
863	 0.185948108599612 
864	 0.186014443154029 
865	 0.186087436122817 
866	 0.186120382305425 
867	 0.18604853655975 
868	 0.186014375197124 
869	 0.186036263170166 
870	 0.186076941632402 
871	 0.186085850862088 
872	 0.186122551151182 
873	 0.186145802153625 
874	 0.18608668904187 
875	 0.186093166511752 
876	 0.186093290669248 
877	 0.186065749158745 
878	 0.186048276426021 
879	 0.186031404331254 
880	 0.18604902519061 
881	 0.186091500189133 
882	 0.186091617832805 
883	 0.186203128756543 
884	 0.186212022943631 
885	 0.186050520011533 
886	 0.186087355614231 
887	 0.186112748802211 
888	 0.186119131907261 
889	 0.18615160955608 
890	 0.186251588352837 
891	 0.186282109317914 
892	 0.186252049469787 
893	 0.18623188829046 
894	 0.186267259960709 
895	 0.186226341320717 
896	 0.186137023232977 
897	 0.186130022968123 
898	 0.186317981934213 
899	 0.186434983296464 
900	 0.186346663253314 
901	 0.186117116962722 
902	 0.186230884358143 
903	 0.186373068192697 
904	 0.186355561966176 
905	 0.186273892877752 
906	 0.186356343233567 
907	 0.186426067403893 
908	 0.186387333143655 
909	 0.186384074893423 
910	 0.186390729946872 
911	 0.186382287343189 
912	 0.186360000866453 
913	 0.186381760354758 
914	 0.186425055287721 
915	 0.186507430818241 
916	 0.186615568998618 
917	 0.186631566107283 
918	 0.186548540847266 
919	 0.186505328517143 
920	 0.18660382192035 
921	 0.186614912909039 
922	 0.186594576168232 
923	 0.186548220583748 
924	 0.186503590485527 
925	 0.186686671934929 
926	 0.186859133685568 
927	 0.186856509013769 
928	 0.186664540469498 
929	 0.186712797609025 
930	 0.186700780731559 
931	 0.186685366477366 
932	 0.186910476814134 
933	 0.186774964660564 
934	 0.186765105547136 
935	 0.186881457490347 
936	 0.186699797380472 
937	 0.18679158792044 
938	 0.186808660417197 
939	 0.186663120028981 
940	 0.186634678383638 
941	 0.186641205411311 
942	 0.186686261152474 
943	 0.186763904255616 
944	 0.186843070725659 
945	 0.186828097342972 
946	 0.186816469201813 
947	 0.186779623340972 
948	 0.186504888790198 
949	 0.186600153644263 
950	 0.186667220725023 
951	 0.186475261415075 
952	 0.186369686223525 
953	 0.186417219960888 
954	 0.18644148438433 
955	 0.186346264551052 
956	 0.186277834711642 
957	 0.186070967490788 
958	 0.185937588800297 
959	 0.18598452797212 
960	 0.185961161461656 
961	 0.186157903268186 
962	 0.186004800501507 
963	 0.185400705276559 
964	 0.185550085215558 
965	 0.185701445138563 
966	 0.185811525906931 
967	 0.185955769883077 
968	 0.18608379676534 
969	 0.186149504897071 
970	 0.186126977549717 
971	 0.186094717862251 
972	 0.186318317025999 
973	 0.186521434995903 
974	 0.186616268460913 
975	 0.186705434548548 
976	 0.187175963702994 
977	 0.186995692196654 
978	 0.18683963174198 
979	 0.187184923649626 
980	 0.187047298063452 
981	 0.187056148201008 
982	 0.187113068084374 
983	 0.187121528966327 
984	 0.187379097869682 
985	 0.187299506065311 
986	 0.187435759415644 
987	 0.187950007916356 
988	 0.187705809861565 
989	 0.187698128199172 
990	 0.18770944768432 
991	 0.187563416255391 
992	 0.187685657045074 
993	 0.18783955934385 
994	 0.187875109894304 
995	 0.187823662182779 
996	 0.187952940300627 
997	 0.187686538150565 
998	 0.187679399950672 
999	 0.188063923867034 
1000	 0.187902248007901 
1001	 0.203794902037125 
1002	 0.203762924024057 
1003	 0.20383921528917 
1004	 0.203909587659694 
1005	 0.203838162514494 
1006	 0.203842095825142 
1007	 0.203883885515189 
1008	 0.203909122916277 
1009	 0.203926834271031 
1010	 0.203973813446381 
1011	 0.204026745436929 
1012	 0.20407059376947 
1013	 0.204066233287817 
1014	 0.20418010282936 
1015	 0.204245681072856 
1016	 0.204165265090405 
1017	 0.204156926996576 
1018	 0.204087731476539 
1019	 0.204013041064652 
1020	 0.204034307427791 
1021	 0.204074269553695 
1022	 0.204144047112893 
1023	 0.204178954115596 
1024	 0.20420422184855 
1025	 0.204212396025232 
1026	 0.204225476779419 
1027	 0.20423415150244 
1028	 0.204233254486049 
1029	 0.204185484361973 
1030	 0.20412502027112 
1031	 0.204082007075179 
1032	 0.204134088184994 
1033	 0.204188168436684 
1034	 0.204280493017723 
1035	 0.204457721075715 
1036	 0.204561304984809 
1037	 0.204645473564681 
1038	 0.204790026946533 
1039	 0.204882308491041 
1040	 0.204896566749816 
1041	 0.204920624531605 
1042	 0.205047407436373 
1043	 0.205069027466708 
1044	 0.205124681097562 
1045	 0.205258201610855 
1046	 0.205294755692567 
1047	 0.205351068705544 
1048	 0.205424921515251 
1049	 0.205498614797366 
1050	 0.205511988841786 
1051	 0.205529556493463 
1052	 0.205610840469472 
1053	 0.205551535871171 
1054	 0.205564773816575 
1055	 0.205612477439799 
1056	 0.205748427614962 
1057	 0.205790543100297 
1058	 0.205897917395094 
1059	 0.205992172058179 
1060	 0.205991378122112 
1061	 0.206012488814795 
1062	 0.206038367537552 
1063	 0.206013299506863 
1064	 0.206029404857278 
1065	 0.206086189913661 
1066	 0.206071630130864 
1067	 0.205988098351316 
1068	 0.205950008363499 
1069	 0.205907116191599 
1070	 0.205844320583942 
1071	 0.205720621817553 
1072	 0.205643062907615 
1073	 0.20550547968497 
1074	 0.205286743952972 
1075	 0.205170301360653 
1076	 0.20506283808378 
1077	 0.204909260542071 
1078	 0.204754834361917 
1079	 0.204544682339629 
1080	 0.204321972426977 
1081	 0.204134710939983 
1082	 0.203987564480953 
1083	 0.203798609987309 
1084	 0.203598808950679 
1085	 0.203445395181848 
1086	 0.203333163532478 
1087	 0.203138404524916 
1088	 0.202962978061996 
1089	 0.202838759212329 
1090	 0.202639228463617 
1091	 0.202452998533026 
1092	 0.202232143439207 
1093	 0.201985271716399 
1094	 0.201775806639429 
1095	 0.201534953263118 
1096	 0.201331371142415 
1097	 0.201197192232367 
1098	 0.201072021019505 
1099	 0.200938637322359 
1100	 0.200835710142348 
1101	 0.200783185931146 
1102	 0.200726027599979 
1103	 0.200587725160042 
1104	 0.200499447346924 
1105	 0.20045007399621 
1106	 0.200342699487032 
1107	 0.200291257956736 
1108	 0.200240008079682 
1109	 0.200140016515844 
1110	 0.200108266016758 
1111	 0.200121465300403 
1112	 0.200151160759534 
1113	 0.200190556744736 
1114	 0.200199990604145 
1115	 0.200183038429309 
1116	 0.20008177864493 
1117	 0.200069538877349 
1118	 0.200067798820504 
1119	 0.200110096004353 
1120	 0.200223017982166 
1121	 0.200361801672107 
1122	 0.200445187504178 
1123	 0.200493437932311 
1124	 0.200507604455004 
1125	 0.200551319818035 
1126	 0.200648487646743 
1127	 0.200730474220326 
1128	 0.200817995970578 
1129	 0.200859519321819 
1130	 0.200856211041929 
1131	 0.20086992157482 
1132	 0.20090261286225 
1133	 0.200961978371086 
1134	 0.201002465087118 
1135	 0.201058309316257 
1136	 0.201086281883192 
1137	 0.201068757836165 
1138	 0.201027198382136 
1139	 0.20103949968487 
1140	 0.201051479896328 
1141	 0.201071587148339 
1142	 0.201114004182061 
1143	 0.201071576010659 
1144	 0.201002216307723 
1145	 0.200979727055879 
1146	 0.200929975101889 
1147	 0.200869451217856 
1148	 0.20082889889833 
1149	 0.200755251745177 
1150	 0.200620813987439 
1151	 0.200538626632519 
1152	 0.200461066182626 
1153	 0.200390494763362 
1154	 0.200351482511292 
1155	 0.200303096612028 
1156	 0.200213384586465 
1157	 0.20015612781129 
1158	 0.200099766848597 
1159	 0.200040992446114 
1160	 0.199986777065228 
1161	 0.199912831062391 
1162	 0.199866062973783 
1163	 0.199828986518545 
1164	 0.199776858379354 
1165	 0.199735994966799 
1166	 0.199709177913825 
1167	 0.199674755741102 
1168	 0.199617918411906 
1169	 0.199581666989685 
1170	 0.19953372061302 
1171	 0.19944364208448 
1172	 0.199376662046903 
1173	 0.199371263169822 
1174	 0.199284522495577 
1175	 0.199229165784627 
1176	 0.199233767549384 
1177	 0.199178962466031 
1178	 0.199178949037893 
1179	 0.199155220755034 
1180	 0.199068662017123 
1181	 0.199040638450437 
1182	 0.199004094135761 
1183	 0.198968460028205 
1184	 0.198964152687196 
1185	 0.198917321714276 
1186	 0.198834385424358 
1187	 0.198774261825761 
1188	 0.198685858992303 
1189	 0.198633443235709 
1190	 0.198614303334122 
1191	 0.198585524096877 
1192	 0.198554579205642 
1193	 0.198531398072648 
1194	 0.198474056047998 
1195	 0.19843023231818 
1196	 0.198433935371887 
1197	 0.19841136309887 
1198	 0.198353606941831 
1199	 0.19832943731035 
1200	 0.198280367145806 
1201	 0.198164812797263 
1202	 0.198131696230325 
1203	 0.198170997891867 
1204	 0.198127767958488 
1205	 0.198060105432276 
1206	 0.198029210553304 
1207	 0.197962004920004 
1208	 0.197925710552097 
1209	 0.1979490158165 
1210	 0.197950937296879 
1211	 0.197901635683273 
1212	 0.197869471925114 
1213	 0.197803622322089 
1214	 0.197776474050544 
1215	 0.1977757602083 
1216	 0.197712492393402 
1217	 0.197695599240998 
1218	 0.197694823143349 
1219	 0.197666891763158 
1220	 0.197632199113028 
1221	 0.197603956247005 
1222	 0.19755826489898 
1223	 0.197514366448643 
1224	 0.197468936027859 
1225	 0.197438280578941 
1226	 0.197426957510718 
1227	 0.197395688736802 
1228	 0.197341618332601 
1229	 0.197310364409329 
1230	 0.197279298860823 
1231	 0.197269092365447 
1232	 0.197198500653173 
1233	 0.197169199885764 
1234	 0.197146982672922 
1235	 0.197030557806937 
1236	 0.196951562193526 
1237	 0.196950004909839 
1238	 0.19690843580724 
1239	 0.196843759252195 
1240	 0.196791721722301 
1241	 0.196747131555247 
1242	 0.196699297526639 
1243	 0.196651195237214 
1244	 0.196605309740051 
1245	 0.196565656089859 
1246	 0.196520619153165 
1247	 0.196470239940024 
1248	 0.196415297434666 
1249	 0.19634559750969 
1250	 0.196304661676385 
1251	 0.196276079193278 
1252	 0.196252817550568 
1253	 0.196233732935111 
1254	 0.196170732223539 
1255	 0.196072361570515 
1256	 0.195985095270519 
1257	 0.195936880089124 
1258	 0.19592910100012 
1259	 0.195898112813982 
1260	 0.195885244348787 
1261	 0.195858254765698 
1262	 0.195817393697796 
1263	 0.195778414691755 
1264	 0.195744842689096 
1265	 0.195713872776117 
1266	 0.195659525900453 
1267	 0.195635889763367 
1268	 0.195663564972741 
1269	 0.195639710123037 
1270	 0.195591928986893 
1271	 0.195559959388338 
1272	 0.195513718122694 
1273	 0.195453120227697 
1274	 0.195423422367813 
1275	 0.195411190935367 
1276	 0.195399245606284 
1277	 0.195372645610855 
1278	 0.195340421877226 
1279	 0.195322554340207 
1280	 0.195311355415836 
1281	 0.1952820273817 
1282	 0.195300159779404 
1283	 0.195358127623309 
1284	 0.195391685965668 
1285	 0.19545275436285 
1286	 0.195474955090581 
1287	 0.195478482850496 
1288	 0.19548054198449 
1289	 0.195463381840749 
1290	 0.195436302425577 
1291	 0.195417990376346 
1292	 0.195365297581569 
1293	 0.19527747069068 
1294	 0.195193188493997 
1295	 0.195109555844129 
1296	 0.194990390794932 
1297	 0.194857410211467 
1298	 0.194702452842535 
1299	 0.194535156071448 
1300	 0.194294775401532 
1301	 0.194030865611397 
1302	 0.193807184840327 
1303	 0.193544433489072 
1304	 0.193267204829848 
1305	 0.192956384547872 
1306	 0.1926240927335 
1307	 0.192268556436438 
1308	 0.191867713533042 
1309	 0.191485727136317 
1310	 0.191118934725982 
1311	 0.190713356376206 
1312	 0.190241670698092 
1313	 0.189864247453352 
1314	 0.189529745229684 
1315	 0.189162374322064 
1316	 0.188844004425175 
1317	 0.188508647124682 
1318	 0.188092809043634 
1319	 0.187751918510728 
1320	 0.187485507948851 
1321	 0.18720402018678 
1322	 0.186933049156854 
1323	 0.186671576990889 
1324	 0.186426316483741 
1325	 0.186191037716529 
1326	 0.186016233530468 
1327	 0.185905039455627 
1328	 0.185786970646048 
1329	 0.185693943333197 
1330	 0.185628406244833 
1331	 0.185571712896931 
1332	 0.185554571665634 
1333	 0.185603670336813 
1334	 0.185609127514632 
1335	 0.18559000301964 
1336	 0.185621678497841 
1337	 0.185663801358441 
1338	 0.185721355277205 
1339	 0.185824889816585 
1340	 0.185917231066513 
1341	 0.18601226238106 
1342	 0.186092308905627 
1343	 0.186178485988179 
1344	 0.186258811157111 
1345	 0.186320290036577 
1346	 0.186386887686297 
1347	 0.186484702352347 
1348	 0.186531492002092 
1349	 0.186550550566919 
1350	 0.186587439232185 
1351	 0.186614887722591 
1352	 0.186616955844686 
1353	 0.186619425926682 
1354	 0.186623865797546 
1355	 0.186623197083669 
1356	 0.186619702999343 
1357	 0.186581528131612 
1358	 0.186525173492006 
1359	 0.186479510236025 
1360	 0.186415327110273 
1361	 0.186345245533847 
1362	 0.186298890720544 
1363	 0.186211211402357 
1364	 0.18608880454194 
1365	 0.185959899218031 
1366	 0.185833688414296 
1367	 0.185670774500193 
1368	 0.185480824737571 
1369	 0.18527420177531 
1370	 0.185052418100068 
1371	 0.184796256505336 
1372	 0.184531918668841 
1373	 0.184216346673589 
1374	 0.183833711411443 
1375	 0.183462543090543 
1376	 0.183079544615178 
1377	 0.182658334695484 
1378	 0.18220646435443 
1379	 0.181763172959688 
1380	 0.181301708416619 
1381	 0.180781462838768 
1382	 0.180227252110643 
1383	 0.179676995870572 
1384	 0.17902865881679 
1385	 0.17831938967151 
1386	 0.177538063578204 
1387	 0.176753184439132 
1388	 0.175766189790737 
1389	 0.174674077862429 
1390	 0.173440545346041 
1391	 0.172039732994317 
1392	 0.170542493009456 
1393	 0.16892042168906 
1394	 0.167207001303515 
1395	 0.165302724340233 
1396	 0.163458932317566 
1397	 0.161545764755745 
1398	 0.159644754032477 
1399	 0.157711828935822 
1400	 0.155837564787615 
1401	 0.153899054752177 
1402	 0.152105017835212 
1403	 0.150383095562191 
1404	 0.14876847990651 
1405	 0.147208370443042 
1406	 0.145812866003138 
1407	 0.144487109522795 
1408	 0.143367538913552 
1409	 0.142385289200885 
1410	 0.141623041489694 
1411	 0.14106102499655 
1412	 0.140734503988955 
1413	 0.140683817312943 
1414	 0.140869299338795 
1415	 0.141315880775331 
1416	 0.142051437746599 
1417	 0.142941972163029 
1418	 0.144115050895921 
1419	 0.145321525543986 
1420	 0.146737519520709 
1421	 0.148109802798778 
1422	 0.149608572323462 
1423	 0.15100367310053 
1424	 0.152427719433294 
1425	 0.153757130577579 
1426	 0.155054328114789 
1427	 0.156247830131941 
1428	 0.157396099337632 
1429	 0.15841444488395 
1430	 0.159314450963692 
1431	 0.160152036956739 
1432	 0.160885088823079 
1433	 0.161564443548825 
1434	 0.162171994081377 
1435	 0.162717303923418 
1436	 0.163186592369657 
1437	 0.163601714237894 
1438	 0.163941598481073 
1439	 0.164248857285027 
1440	 0.1644858619913 
1441	 0.164708972469125 
1442	 0.164882251300211 
1443	 0.165059969290062 
1444	 0.165236748567972 
1445	 0.165375172614021 
1446	 0.165482892496231 
1447	 0.16558720466054 
1448	 0.165681049602409 
1449	 0.165728272644589 
1450	 0.165748176032583 
1451	 0.165814722045505 
1452	 0.165858301386313 
1453	 0.165880912201494 
1454	 0.165898332327353 
1455	 0.165916197380254 
1456	 0.165947033290139 
1457	 0.165967017137711 
1458	 0.165987498017537 
1459	 0.166028846323365 
1460	 0.166056062485167 
1461	 0.166052151178016 
1462	 0.166085302240457 
1463	 0.166150529787951 
1464	 0.166192896839264 
1465	 0.166228400224207 
1466	 0.166272289287888 
1467	 0.166307021665589 
1468	 0.166365492900986 
1469	 0.166432866797542 
1470	 0.166520085378942 
1471	 0.166644399559113 
1472	 0.166734151947087 
1473	 0.166821576590963 
1474	 0.166912476838885 
1475	 0.166975142321538 
1476	 0.167062442797835 
1477	 0.167174726898023 
1478	 0.167278155205624 
1479	 0.167394067295934 
1480	 0.167493482249029 
1481	 0.167581220485123 
1482	 0.167672684252006 
1483	 0.167746370235177 
1484	 0.167834419534414 
1485	 0.16794390191477 
1486	 0.16803866518627 
1487	 0.168132911961344 
1488	 0.16822106847979 
1489	 0.16828628087459 
1490	 0.168369889763427 
1491	 0.168472821866032 
1492	 0.168559411266572 
1493	 0.168644722194295 
1494	 0.168724399015821 
1495	 0.168819966106582 
1496	 0.16892388413992 
1497	 0.169017094978679 
1498	 0.169109917470285 
1499	 0.169186088830267 
1500	 0.169233298316076 
1501	 0.169311544975196 
1502	 0.169405684995922 
1503	 0.16950113880649 
1504	 0.169606332741443 
1505	 0.16969611854162 
1506	 0.169792630111435 
1507	 0.169866834934788 
1508	 0.169911693370096 
1509	 0.169994902454134 
1510	 0.170087005791773 
1511	 0.170171748891688 
1512	 0.170277330721023 
1513	 0.170360704811203 
1514	 0.17042064877345 
1515	 0.170502398566129 
1516	 0.170591189970333 
1517	 0.170674158631218 
1518	 0.170762741792958 
1519	 0.17084531952316 
1520	 0.170936418057733 
1521	 0.170994365448598 
1522	 0.171013049880279 
1523	 0.171085240540561 
1524	 0.171165454338806 
1525	 0.171236638789408 
1526	 0.171359385099945 
1527	 0.171425588238399 
1528	 0.171417201324464 
1529	 0.171476282159927 
1530	 0.171575787713084 
1531	 0.171631703592124 
1532	 0.171686397620278 
1533	 0.171750338398151 
1534	 0.171787354941835 
1535	 0.17183308053124 
1536	 0.171909935911692 
1537	 0.171965884874288 
1538	 0.171984832121937 
1539	 0.172035662357422 
1540	 0.172134476885113 
1541	 0.172172856599098 
1542	 0.172166964651006 
1543	 0.17220267827574 
1544	 0.172219087155287 
1545	 0.172249501709908 
1546	 0.172336793416144 
1547	 0.172388873602842 
1548	 0.172401032221265 
1549	 0.172435914409692 
1550	 0.172484956767654 
1551	 0.172525521246917 
1552	 0.172558342203248 
1553	 0.172605792688943 
1554	 0.172676741541354 
1555	 0.172711213195614 
1556	 0.172731469524011 
1557	 0.172759250653086 
1558	 0.172751888556576 
1559	 0.172767259955859 
1560	 0.172814720049773 
1561	 0.172851981211621 
1562	 0.172891527649514 
1563	 0.172919843531478 
1564	 0.172928460866609 
1565	 0.172955315426181 
1566	 0.172989140512097 
1567	 0.173026444822361 
1568	 0.173062442550666 
1569	 0.173072146592666 
1570	 0.173047985955575 
1571	 0.173075005533688 
1572	 0.173123591995756 
1573	 0.17314460426244 
1574	 0.173179423006578 
1575	 0.173191887425352 
1576	 0.173181250900397 
1577	 0.173202190598801 
1578	 0.173218931229559 
1579	 0.173221020075947 
1580	 0.173229582110528 
1581	 0.173246774895718 
1582	 0.173279575793581 
1583	 0.173286888563499 
1584	 0.173273589540736 
1585	 0.173267779394535 
1586	 0.173238693135191 
1587	 0.173216062951266 
1588	 0.173238997887236 
1589	 0.173244619597302 
1590	 0.173224205023727 
1591	 0.173224116121954 
1592	 0.173213291041482 
1593	 0.173203158161824 
1594	 0.173234163595791 
1595	 0.17325735748527 
1596	 0.173245907240685 
1597	 0.173230882346505 
1598	 0.173221836979631 
1599	 0.173234622989631 
1600	 0.173254461945516 
1601	 0.173215781570186 
1602	 0.17316772482792 
1603	 0.173165461188441 
1604	 0.173135631474196 
1605	 0.17311629073776 
1606	 0.173152117513137 
1607	 0.173139331557605 
1608	 0.17310367657908 
1609	 0.173113238039853 
1610	 0.173072431741524 
1611	 0.17300900707835 
1612	 0.172988135712439 
1613	 0.172999322265792 
1614	 0.172978403660436 
1615	 0.172971859760486 
1616	 0.172923583494825 
1617	 0.172827069750155 
1618	 0.172802536944549 
1619	 0.172799140797331 
1620	 0.17276822991678 
1621	 0.172757954882188 
1622	 0.172738659302916 
1623	 0.172686466112046 
1624	 0.172687708303237 
1625	 0.172684356873152 
1626	 0.172631823955537 
1627	 0.172577314718156 
1628	 0.17253826248297 
1629	 0.172527016568782 
1630	 0.172560427744762 
1631	 0.172555645870107 
1632	 0.172490089079568 
1633	 0.172439435860276 
1634	 0.17239567149601 
1635	 0.172378741781878 
1636	 0.172403792751338 
1637	 0.17239973378456 
1638	 0.172367795227579 
1639	 0.172317296249634 
1640	 0.172291715121851 
1641	 0.172300827891701 
1642	 0.172278721733854 
1643	 0.172259369081065 
1644	 0.172218966412496 
1645	 0.172135667621112 
1646	 0.172115604572219 
1647	 0.172130842261344 
1648	 0.172108131918265 
1649	 0.172068915973487 
1650	 0.172017051539366 
1651	 0.171966139864963 
1652	 0.171931979210315 
1653	 0.17190619601531 
1654	 0.171861135986756 
1655	 0.171801812317666 
1656	 0.171750625948739 
1657	 0.171726149494353 
1658	 0.171730049320357 
1659	 0.171694619054197 
1660	 0.171621709035242 
1661	 0.171561760016641 
1662	 0.171520857456917 
1663	 0.171488957829775 
1664	 0.171453462030193 
1665	 0.171432667830104 
1666	 0.171394887302915 
1667	 0.171332140671793 
1668	 0.171306087992367 
1669	 0.171268936813574 
1670	 0.171204703459654 
1671	 0.171170267264045 
1672	 0.17113933499434 
1673	 0.171101987923021 
1674	 0.171067155365193 
1675	 0.171029076820382 
1676	 0.170981462936411 
1677	 0.170936199633523 
1678	 0.170897302519105 
1679	 0.17084311642393 
1680	 0.170813272394811 
1681	 0.170789353037181 
1682	 0.170742085525407 
1683	 0.170715829239212 
1684	 0.17066057485283 
1685	 0.170596139827627 
1686	 0.170573146365814 
1687	 0.170538503447447 
1688	 0.170498553582214 
1689	 0.170431381458576 
1690	 0.170352399286976 
1691	 0.170287771100484 
1692	 0.170223151529325 
1693	 0.170211267303383 
1694	 0.170232811844502 
1695	 0.170223736727306 
1696	 0.170130958005521 
1697	 0.170061850628844 
1698	 0.169944857724799 
1699	 0.1698564368458 
1700	 0.169821291585432 
1701	 0.169758902601161 
1702	 0.169669984859093 
1703	 0.169606826875467 
1704	 0.16955351437985 
1705	 0.169499151225265 
1706	 0.169463834504328 
1707	 0.169404012927496 
1708	 0.169331889696965 
1709	 0.169252978930881 
1710	 0.169150956160693 
1711	 0.169072949937918 
1712	 0.168996970904356 
1713	 0.168936655023931 
1714	 0.1688974587612 
1715	 0.168847845809906 
1716	 0.168828563288827 
1717	 0.168752644046979 
1718	 0.16861958194739 
1719	 0.16854654023475 
1720	 0.168469707332035 
1721	 0.168392932694948 
1722	 0.168382252825 
1723	 0.168302722642902 
1724	 0.16815433943349 
1725	 0.168048004079061 
1726	 0.167937526504849 
1727	 0.167826605324163 
1728	 0.167730659030866 
1729	 0.167638653519683 
1730	 0.167578576707103 
1731	 0.16753267646812 
1732	 0.167411221492051 
1733	 0.167277169874266 
1734	 0.167181286945666 
1735	 0.167093317293982 
1736	 0.167007470535047 
1737	 0.166918057462692 
1738	 0.166793834993109 
1739	 0.166653562270071 
1740	 0.166546535080274 
1741	 0.166436449798507 
1742	 0.166311200327881 
1743	 0.166216625961148 
1744	 0.166122178682235 
1745	 0.166023186105154 
1746	 0.165936941870482 
1747	 0.16581906872711 
1748	 0.165693324494812 
1749	 0.165621941561154 
1750	 0.165547995372296 
1751	 0.165418465401927 
1752	 0.165316851156601 
1753	 0.165204772655413 
1754	 0.165052203496482 
1755	 0.164974547478558 
1756	 0.164870740653115 
1757	 0.164728265096654 
1758	 0.164646485551926 
1759	 0.164536916514818 
1760	 0.164438746218946 
1761	 0.164376356894271 
1762	 0.164266522680441 
1763	 0.164171515237176 
1764	 0.164071555186973 
1765	 0.163947204112441 
1766	 0.163843288713892 
1767	 0.163756205362953 
1768	 0.163657971452338 
1769	 0.163564920735727 
1770	 0.163468804605335 
1771	 0.163339759857103 
1772	 0.163270814864006 
1773	 0.163240670667151 
1774	 0.163179127895336 
1775	 0.163154088699754 
1776	 0.163043066854008 
1777	 0.162928468466478 
1778	 0.162828848006266 
1779	 0.162750529238109 
1780	 0.162668779403686 
1781	 0.162564767736084 
1782	 0.16245056078655 
1783	 0.162361218765933 
1784	 0.162270845430692 
1785	 0.162182733819608 
1786	 0.162150745551897 
1787	 0.162112763683956 
1788	 0.162051002524712 
1789	 0.162001737795909 
1790	 0.161944130468086 
1791	 0.161855497504605 
1792	 0.161780382107542 
1793	 0.161741603611882 
1794	 0.161696184792137 
1795	 0.161646945415566 
1796	 0.161592333585516 
1797	 0.161535720004014 
1798	 0.16147668989668 
1799	 0.161422197421064 
1800	 0.161401509402377 
1801	 0.161389743247348 
1802	 0.161383622087624 
1803	 0.161349274748803 
1804	 0.161302164768806 
1805	 0.161246547238455 
1806	 0.161150188378774 
1807	 0.161091497819414 
1808	 0.161035785802949 
1809	 0.160992846754998 
1810	 0.16098729849406 
1811	 0.160967570168034 
1812	 0.160960241982662 
1813	 0.160954526692078 
1814	 0.160896785799852 
1815	 0.160831717944208 
1816	 0.160748284341242 
1817	 0.160659905626942 
1818	 0.160641677093377 
1819	 0.160678421229877 
1820	 0.160736368679866 
1821	 0.160735721755444 
1822	 0.160701657958789 
1823	 0.1606604458169 
1824	 0.160563957283551 
1825	 0.160534658099812 
1826	 0.160546577267424 
1827	 0.160530775919809 
1828	 0.160534816655721 
1829	 0.160522799729187 
1830	 0.160484132020116 
1831	 0.168166275219018 
1832	 0.168061611348925 
1833	 0.167923050270303 
1834	 0.167789674618605 
1835	 0.167585487725607 
1836	 0.167470397006214 
1837	 0.167392350220022 
1838	 0.16735890852021 
1839	 0.167339986371594 
1840	 0.167243293933322 
1841	 0.167091176328152 
1842	 0.166828587826819 
1843	 0.166669109314883 
1844	 0.166492995223556 
1845	 0.166365188259231 
1846	 0.166366529248219 
1847	 0.166248098085144 
1848	 0.166117256234066 
1849	 0.165874472379892 
1850	 0.165619473070116 
1851	 0.165408081471723 
1852	 0.165243081938487 
1853	 0.165176306169939 
1854	 0.165006417498018 
1855	 0.16480557759012 
1856	 0.1646228563285 
1857	 0.164413591375966 
1858	 0.164189983077537 
1859	 0.163985167805076 
1860	 0.163725739808243 
1861	 0.163407326241362 
1862	 0.163101643432324 
1863	 0.162779467467219 
1864	 0.162493717735793 
1865	 0.16212264021745 
1866	 0.161666518611815 
1867	 0.161231515539697 
1868	 0.160776036646452 
1869	 0.16030269750217 
1870	 0.159771056605374 
1871	 0.159257271051812 
1872	 0.158736230800416 
1873	 0.158164402291025 
1874	 0.15758485403325 
1875	 0.157060824244556 
1876	 0.156436002316752 
1877	 0.155746696979166 
1878	 0.155033081921313 
1879	 0.154271196872528 
1880	 0.153501799637283 
1881	 0.152692775651207 
1882	 0.151886824907469 
1883	 0.151011069147438 
1884	 0.150074050630882 
1885	 0.149162093367611 
1886	 0.1482182806174 
1887	 0.147232256500405 
1888	 0.14622551907707 
1889	 0.145273851396004 
1890	 0.144189285603846 
1891	 0.143076235202637 
1892	 0.142007258596543 
1893	 0.140949240708755 
1894	 0.139922358739148 
1895	 0.138843688587172 
1896	 0.137770021208659 
1897	 0.136678785688482 
1898	 0.135588485772434 
1899	 0.134415648250529 
1900	 0.133416436636374 
1901	 0.132468339244682 
1902	 0.13152154476544 
1903	 0.130734615211543 
1904	 0.129988737939367 
1905	 0.129328968101055 
1906	 0.128757384474132 
1907	 0.128221465432957 
1908	 0.127711790742608 
1909	 0.127359649652933 
1910	 0.127111013856186 
1911	 0.126878716960444 
1912	 0.126813075520618 
1913	 0.126744201420507 
1914	 0.126558837112207 
1915	 0.126504059543701 
1916	 0.126523284716526 
1917	 0.126564186991729 
1918	 0.126625659698825 
1919	 0.126815981364046 
1920	 0.126903074608481 
1921	 0.12694852487948 
1922	 0.12693576452304 
1923	 0.127041735101081 
1924	 0.127168406493403 
1925	 0.127245380860411 
1926	 0.127380128827602 
1927	 0.12749991225372 
1928	 0.127569488499081 
1929	 0.127662965843752 
1930	 0.127792816810506 
1931	 0.127917067071872 
1932	 0.128034157706632 
1933	 0.128132024056049 
1934	 0.128265205048555 
1935	 0.12839645697072 
1936	 0.128481352280194 
1937	 0.128626809225016 
1938	 0.12878509104793 
1939	 0.128854475353731 
1940	 0.12891167903099 
1941	 0.128969851122098 
1942	 0.12904627591746 
1943	 0.129090768613733 
1944	 0.129195019529552 
1945	 0.129339490086699 
1946	 0.129450256677489 
1947	 0.129519890227139 
1948	 0.129574301472733 
1949	 0.129663802724222 
1950	 0.129802142593132 
1951	 0.129890922940224 
1952	 0.129975260008963 
1953	 0.130105364096767 
1954	 0.130217461903458 
1955	 0.130294763794131 
1956	 0.130367106935083 
1957	 0.130490321585827 
1958	 0.130610369918776 
1959	 0.130716467855926 
1960	 0.130904105644756 
1961	 0.131066572175812 
1962	 0.131163882815765 
1963	 0.131251719285026 
1964	 0.131321159179936 
1965	 0.131473519383035 
1966	 0.131614351563013 
1967	 0.131706364544054 
1968	 0.131762679972525 
1969	 0.131855906832023 
1970	 0.131941220404953 
1971	 0.13203105070589 
1972	 0.132215623919188 
1973	 0.132393302745137 
1974	 0.132492940252572 
1975	 0.132598955953067 
1976	 0.13273154190404 
1977	 0.132854368541368 
1978	 0.132968995055911 
1979	 0.133074346208266 
1980	 0.133202949518768 
1981	 0.133327639061703 
1982	 0.133457126180468 
1983	 0.133660960205092 
1984	 0.133871143510649 
1985	 0.134003175974545 
1986	 0.134154694749444 
1987	 0.13428178902742 
1988	 0.134371841966869 
1989	 0.134581222234804 
1990	 0.134791207983726 
1991	 0.134940798835453 
1992	 0.13504655090563 
1993	 0.135189874298051 
1994	 0.135308552665341 
1995	 0.135428163157782 
1996	 0.135588124858254 
1997	 0.135731493271654 
1998	 0.135855431935704 
1999	 0.135989110156997 
2000	 0.136169949915993 
2001	 0.136325904204164 
2002	 0.136464137305134 
2003	 0.136648709922788 
2004	 0.136804405017067 
2005	 0.136933821330816 
2006	 0.137083300182976 
2007	 0.1372591179393 
2008	 0.137364857734872 
2009	 0.137485102803383 
2010	 0.137641971340959 
2011	 0.137864938372314 
2012	 0.138054983228286 
2013	 0.138153104282896 
2014	 0.138262722475369 
2015	 0.138336044320044 
2016	 0.138425339959612 
2017	 0.138551753767128 
2018	 0.138755609592941 
2019	 0.13891356789187 
2020	 0.139065274316404 
2021	 0.139208591004328 
2022	 0.139358817233339 
2023	 0.139574734231459 
2024	 0.13973026601848 
2025	 0.139799903954244 
2026	 0.139931498814839 
2027	 0.140056754605975 
2028	 0.140196710752022 
2029	 0.140420270821941 
2030	 0.140569108452543 
2031	 0.14067258982115 
2032	 0.140778789419146 
2033	 0.14085216165804 
2034	 0.140943769860565 
2035	 0.141059565475543 
2036	 0.141120219139594 
2037	 0.141177651348945 
2038	 0.141300431921897 
2039	 0.14142400902066 
2040	 0.141536678362148 
2041	 0.141572530023 
2042	 0.141543382658933 
2043	 0.141633170356599 
2044	 0.141738858200198 
2045	 0.141817910739146 
2046	 0.142026320842475 
2047	 0.142126935163433 
2048	 0.142135451666031 
2049	 0.142084186342813 
2050	 0.142144390846239 
2051	 0.142211573998495 
2052	 0.142252894801871 
2053	 0.142316554243083 
2054	 0.142409524848384 
2055	 0.142480580319958 
2056	 0.142509255681573 
2057	 0.142555869671055 
2058	 0.14259771763048 
2059	 0.14262661905163 
2060	 0.14265478241817 
2061	 0.142683054137889 
2062	 0.142723594383529 
2063	 0.142766320685094 
2064	 0.142800603591736 
2065	 0.142827520469068 
2066	 0.142894330025302 
2067	 0.142975882221918 
2068	 0.143015484264505 
2069	 0.142991367507639 
2070	 0.142971750777711 
2071	 0.143005800207924 
2072	 0.142991748126921 
2073	 0.142973001881127 
2074	 0.143047212681903 
2075	 0.143064383887674 
2076	 0.143003964169413 
2077	 0.142979968376619 
2078	 0.143016819002885 
2079	 0.142995359244037 
2080	 0.142937605934196 
2081	 0.142842356624344 
2082	 0.142833703928292 
2083	 0.142781636376956 
2084	 0.142742774965847 
2085	 0.142757302242851 
2086	 0.142724212647496 
2087	 0.142696718747199 
2088	 0.142637747335628 
2089	 0.142568033440274 
2090	 0.142502690550665 
2091	 0.142416543410576 
2092	 0.142333295122455 
2093	 0.142254703519778 
2094	 0.142184596623466 
2095	 0.142115564894607 
2096	 0.142058991201494 
2097	 0.142008961784197 
2098	 0.141946531638855 
2099	 0.141863430208248 
2100	 0.141799352221161 
2101	 0.141744609977371 
2102	 0.141657125615627 
2103	 0.141572680769741 
2104	 0.141481900837684 
2105	 0.141380278951498 
2106	 0.141295623984997 
2107	 0.141229056261664 
2108	 0.141216654206593 
2109	 0.141162442176023 
2110	 0.141074957592565 
2111	 0.141011889824618 
2112	 0.140933161828944 
2113	 0.140924338879366 
2114	 0.14096248433969 
2115	 0.14101484750917 
2116	 0.141056987559888 
2117	 0.141012221464524 
2118	 0.140951049138769 
2119	 0.140973318356708 
2120	 0.141021613334301 
2121	 0.141040414522644 
2122	 0.141052068536329 
2123	 0.141050711988533 
2124	 0.141056294379129 
2125	 0.141072211721331 
2126	 0.141115914401449 
2127	 0.141173212033966 
2128	 0.141162210477334 
2129	 0.141140884106403 
2130	 0.14115777169321 
2131	 0.141120686285051 
2132	 0.141166485206361 
2133	 0.141289892099449 
2134	 0.141223285532231 
2135	 0.141118673471061 
2136	 0.141105941086417 
2137	 0.141068658859273 
2138	 0.141011433188474 
2139	 0.140904583445235 
2140	 0.140756183046704 
2141	 0.140649118220003 
2142	 0.140524009517117 
2143	 0.140401404704368 
2144	 0.140358740659593 
2145	 0.140196196231898 
2146	 0.139945582152681 
2147	 0.13973592197811 
2148	 0.139486311102092 
2149	 0.139231780773207 
2150	 0.13897946412617 
2151	 0.138737219037473 
2152	 0.138466332907546 
2153	 0.138161187411379 
2154	 0.137834079410231 
2155	 0.13752187865032 
2156	 0.137175464410462 
2157	 0.136815660374391 
2158	 0.136482800822762 
2159	 0.136083123129728 
2160	 0.135615117232077 
2161	 0.135121220171095 
2162	 0.134608504004898 
2163	 0.134042391610647 
2164	 0.133513917027088 
2165	 0.133015655966118 
2166	 0.132427567150264 
2167	 0.13183293074861 
2168	 0.131171641797486 
2169	 0.130398781048226 
2170	 0.129673977820515 
2171	 0.128946159204108 
2172	 0.128114370607186 
2173	 0.127283332125172 
2174	 0.126471506059807 
2175	 0.125652228764167 
2176	 0.12482073941085 
2177	 0.123922192596495 
2178	 0.122918702692498 
2179	 0.12186522808059 
2180	 0.120815666579543 
2181	 0.119760968978506 
2182	 0.118701374234316 
2183	 0.117577475547753 
2184	 0.116357585276713 
2185	 0.115199522542779 
2186	 0.114013483946793 
2187	 0.112886728194878 
2188	 0.111818814776902 
2189	 0.110748908367338 
2190	 0.109673815533779 
2191	 0.108625840549729 
2192	 0.107588448706684 
2193	 0.106599885095876 
2194	 0.105610437833261 
2195	 0.104723842368114 
2196	 0.103878302799602 
2197	 0.103025748546412 
2198	 0.10231214292728 
2199	 0.101686408789371 
2200	 0.101083088919995 
2201	 0.100560016448334 
2202	 0.100065285281649 
2203	 9.95677588614504E-02 
2204	 0.099165936389858 
2205	 9.88340375313603E-02 
2206	 9.85385290911484E-02 
2207	 9.82883717266929E-02 
2208	 9.81275120082304E-02 
2209	 9.80327491834685E-02 
2210	 9.79976474093707E-02 
2211	 9.80456922723236E-02 
2212	 9.81440194066799E-02 
2213	 9.82412612167046E-02 
2214	 9.84702760879586E-02 
2215	 9.88020601668333E-02 
2216	 9.92821656132229E-02 
2217	 9.96795979943009E-02 
2218	 0.100119804722874 
2219	 0.100708760994994 
2220	 0.101294788568576 
2221	 0.101968627812324 
2222	 0.102726529105675 
2223	 0.103440108114979 
2224	 0.104248445293128 
2225	 0.105052929099134 
2226	 0.105860176698244 
2227	 0.106747345860736 
2228	 0.107529692373805 
2229	 0.108385755703337 
2230	 0.10930255174996 
2231	 0.110089069672523 
2232	 0.110765849439552 
2233	 0.111495676031605 
2234	 0.112194532235369 
2235	 0.112839817150785 
2236	 0.113481354765047 
2237	 0.114099194759688 
2238	 0.114637588356984 
2239	 0.115216056709683 
2240	 0.115880079323115 
2241	 0.116403887423407 
2242	 0.116850258465832 
2243	 0.117259597922587 
2244	 0.117636261099567 
2245	 0.117988822881209 
2246	 0.118328905143686 
2247	 0.118635201376097 
2248	 0.118965815195295 
2249	 0.119355946946955 
2250	 0.119613816818486 
2251	 0.119826674860616 
2252	 0.120109257229673 
2253	 0.120311913379702 
2254	 0.120583607940322 
2255	 0.120956991812059 
2256	 0.121199811132684 
2257	 0.121333308923975 
2258	 0.121476917900177 
2259	 0.121648018648754 
2260	 0.121842095449965 
2261	 0.122097551411679 
2262	 0.122240018470414 
2263	 0.122334333531788 
2264	 0.12246594601893 
2265	 0.122586350688974 
2266	 0.122654633356458 
2267	 0.122660831784302 
2268	 0.122800276691709 
2269	 0.122988907523858 
2270	 0.123077576698028 
2271	 0.123250630663952 
2272	 0.12334951003264 
2273	 0.123350112750658 
2274	 0.123256784507768 
2275	 0.123192543522588 
2276	 0.123192041921087 
2277	 0.123074873804663 
2278	 0.12301237621529 
2279	 0.123038410573595 
2280	 0.123026334902827 
2281	 0.123024403173319 
2282	 0.122951082129951 
2283	 0.122870689646305 
2284	 0.122868209236579 
2285	 0.122853779529009 
2286	 0.122829436689648 
2287	 0.122686611540731 
2288	 0.122353574996088 
2289	 0.122129983147748 
2290	 0.12204233006851 
2291	 0.121899502180207 
2292	 0.12182276694946 
2293	 0.121691014210697 
2294	 0.121325488968927 
2295	 0.121069649299823 
2296	 0.120925575001615 
2297	 0.12066039093297 
2298	 0.120267519089301 
2299	 0.120006658643224 
2300	 0.119781042763379 
2301	 0.119473257802749 
2302	 0.119251927667789 
2303	 0.118955936348716 
2304	 0.118529617978944 
2305	 0.118116492411115 
2306	 0.117686413931234 
2307	 0.11724217459426 
2308	 0.116737963507804 
2309	 0.116291644575709 
2310	 0.1159178418051 
2311	 0.115518132021886 
2312	 0.115162762355931 
2313	 0.114639154762262 
2314	 0.114181850020367 
2315	 0.113720016683174 
2316	 0.113180492171305 
2317	 0.112825165039431 
2318	 0.112482660276149 
2319	 0.112027773219266 
2320	 0.111526901330649 
2321	 0.110952076590319 
2322	 0.110458565811732 
2323	 0.110022492001562 
2324	 0.109630237555454 
2325	 0.109245289694264 
2326	 0.108703921738479 
2327	 0.108147168851266 
2328	 0.107576131831157 
2329	 0.107118004044563 
2330	 0.106744944411824 
2331	 0.106183578969959 
2332	 0.10570694164309 
2333	 0.105294784097112 
2334	 0.104865362287001 
2335	 0.104434000782968 
2336	 0.103824704127331 
2337	 0.103298980017781 
2338	 0.102960749005545 
2339	 0.102646187262102 
2340	 0.102275299772782 
2341	 0.101894853420239 
2342	 0.10152832788289 
2343	 0.101117562540148 
2344	 0.10096539686528 
2345	 0.100949902258925 
2346	 0.100722034839923 
2347	 0.100584811423118 
2348	 0.10051075025469 
2349	 0.100469463491406 
2350	 0.100411353937847 
2351	 0.100419912881369 
2352	 0.100465221052594 
2353	 0.100504084756446 
2354	 0.100582962238171 
2355	 0.100764259162452 
2356	 0.100900882547021 
2357	 0.100985891493388 
2358	 0.101143641621756 
2359	 0.101282401126042 
2360	 0.101512636615245 
2361	 0.101959502232484 
2362	 0.102211190206532 
2363	 0.102346359851348 
2364	 0.102620698098861 
2365	 0.102911148130452 
2366	 0.103062175868131 
2367	 0.10327341115579 
2368	 0.103476402705525 
2369	 0.103483832966647 
2370	 0.103529213809234 
2371	 0.103717440350127 
2372	 0.103821007945327 
2373	 0.103773206713055 
2374	 0.103791310759843 
2375	 0.103881289032097 
2376	 0.103869921801629 
2377	 0.10380382492304 
2378	 0.103753474205872 
2379	 0.103676979823603 
2380	 0.103591788313636 
2381	 0.103644441828451 
2382	 0.103825104980389 
2383	 0.103892401834143 
2384	 0.103748272747773 
2385	 0.103552079230898 
2386	 0.103497741279222 
2387	 0.103570498293738 
2388	 0.103634429935111 
2389	 0.103486177051063 
2390	 0.103302773967455 
2391	 0.103084751711231 
2392	 0.102927347001979 
2393	 0.103022725984483 
2394	 0.102941287981426 
2395	 0.102767278180704 
2396	 0.102727120239972 
2397	 0.102676449380295 
2398	 0.10259163967275 
2399	 0.102464171457819 
2400	 0.102161417348801 
2401	 0.101747533779161 
2402	 0.10145547938488 
2403	 0.101161262929161 
2404	 0.100860613478518 
2405	 0.100856628941935 
2406	 0.1007942377423 
2407	 0.100499277859529 
2408	 0.100249315784354 
2409	 9.99285437417429E-02 
2410	 0.099586976980457 
2411	 0.09927012353117 
2412	 9.91768375321046E-02 
2413	 9.91248641672894E-02 
2414	 9.88051758065088E-02 
2415	 9.85164579540876E-02 
2416	 0.098205053061774 
2417	 9.77526272435719E-02 
2418	 9.73239853258421E-02 
2419	 9.69969843135931E-02 
2420	 9.66321372547083E-02 
2421	 9.62637699731554E-02 
2422	 9.58912567431067E-02 
2423	 9.54234302766641E-02 
2424	 0.095220075579233 
2425	 9.53477724901684E-02 
2426	 9.51793025044669E-02 
2427	 9.48286560616114E-02 
2428	 9.44631276948524E-02 
2429	 9.37187724289507E-02 
2430	 9.32932249089589E-02 
2431	 9.32688645315122E-02 
2432	 9.30294322326293E-02 
2433	 9.28901207146827E-02 
2434	 9.28129592443417E-02 
2435	 9.25363780168175E-02 
2436	 9.24954345615089E-02 
2437	 9.25756044654944E-02 
2438	 9.23287425038334E-02 
2439	 9.21599373080165E-02 
2440	 9.20189371274441E-02 
2441	 0.091489254701487 
2442	 9.11675049699609E-02 
2443	 9.13946963308667E-02 
2444	 9.14719183227894E-02 
2445	 9.13535672734431E-02 
2446	 9.13713419574342E-02 
2447	 0.091214108777566 
2448	 9.11671703172791E-02 
2449	 9.17035799320877E-02 
2450	 9.19507651837934E-02 
2451	 9.16101338139393E-02 
2452	 9.13824531963563E-02 
2453	 9.06871315299608E-02 
2454	 9.05087055916394E-02 
2455	 9.09787865443896E-02 
2456	 9.11662224357389E-02 
2457	 9.14524235432445E-02 
2458	 9.14970730143236E-02 
2459	 9.12776752399165E-02 
2460	 9.12436173910092E-02 
2461	 9.11489717773017E-02 
2462	 9.12298363785037E-02 
2463	 9.14198844077318E-02 
2464	 9.16056899482667E-02 
2465	 9.20048643363555E-02 
2466	 0.092137933364192 
2467	 9.22854555745911E-02 
2468	 9.22874229367469E-02 
2469	 9.17690970168845E-02 
2470	 9.17751867762217E-02 
2471	 9.20156846661547E-02 
2472	 9.22149673590452E-02 
2473	 9.30108073109464E-02 
2474	 9.29651335148875E-02 
2475	 9.21796873960408E-02 
2476	 9.20697759146842E-02 
2477	 9.18207895187297E-02 
2478	 9.16962243078209E-02 
2479	 9.21105707741079E-02 
2480	 9.23120672056036E-02 
2481	 9.23808235888927E-02 
2482	 0.09253835666129 
2483	 9.23016936767027E-02 
2484	 9.22369003971255E-02 
2485	 9.20475802270276E-02 
2486	 9.19317535026199E-02 
2487	 9.23036111267246E-02 
2488	 9.22408401463074E-02 
2489	 9.21260739108857E-02 
2490	 9.24490225480307E-02 
2491	 9.23634756947252E-02 
2492	 0.091911536745789 
2493	 9.19727983377269E-02 
2494	 9.20049166788634E-02 
2495	 9.19932657067709E-02 
2496	 0.092594047918964 
2497	 9.28573052291368E-02 
2498	 9.28296554204108E-02 
2499	 9.30023811726654E-02 
2500	 9.29032058124112E-02 
