Wavelength	XK1Y08-100001.asd
350	 7.15608432024621E-02 
351	 7.16747580128774E-02 
352	 7.18448169654129E-02 
353	 0.072447463996877 
354	 7.33943920004514E-02 
355	 0.073948193884954 
356	 7.42571626407402E-02 
357	 7.45776687607881E-02 
358	 7.48602094378345E-02 
359	 7.48875221913329E-02 
360	 7.51440999591898E-02 
361	 7.59794270127715E-02 
362	 7.66920449508011E-02 
363	 7.67710248547798E-02 
364	 0.076752911262671 
365	 7.73464290547479E-02 
366	 7.77351408901082E-02 
367	 7.80172077640667E-02 
368	 7.84036753961591E-02 
369	 7.90739452025343E-02 
370	 7.96222158422902E-02 
371	 0.0798614904604 
372	 8.00403545107009E-02 
373	 8.07778944026895E-02 
374	 8.11871969737482E-02 
375	 8.14925989484269E-02 
376	 8.19848485519561E-02 
377	 0.08271260282558 
378	 8.32680341641441E-02 
379	 8.37177052506387E-02 
380	 8.42269976259284E-02 
381	 8.47762339643661E-02 
382	 8.53402667243944E-02 
383	 8.58750033684258E-02 
384	 0.086380236017758 
385	 8.71075385796232E-02 
386	 8.79606851224676E-02 
387	 0.088697055654686 
388	 8.90637482697647E-02 
389	 8.96361378169675E-02 
390	 9.03250535281993E-02 
391	 0.091078342195921 
392	 9.19718013061485E-02 
393	 9.19961272030152E-02 
394	 9.21366408529975E-02 
395	 9.30298281577931E-02 
396	 9.36140131097031E-02 
397	 0.094138847747834 
398	 9.47811339811528E-02 
399	 9.55497807661269E-02 
400	 9.58803584328996E-02 
401	 9.63807620531773E-02 
402	 9.69222321626939E-02 
403	 9.71066048319079E-02 
404	 9.75589712069434E-02 
405	 9.81042286678513E-02 
406	 9.86191637192351E-02 
407	 0.099113975278785 
408	 0.099519662219299 
409	 0.099902005404703 
410	 0.10036464205938 
411	 0.101043842615845 
412	 0.101616561352188 
413	 0.102173617633771 
414	 0.102846584465648 
415	 0.103392153825528 
416	 0.103898109466557 
417	 0.104390130192204 
418	 0.104875074685702 
419	 0.105566123861446 
420	 0.106193456407564 
421	 0.106666046658827 
422	 0.107156722320523 
423	 0.107799325146968 
424	 0.108445050062642 
425	 0.109002312901886 
426	 0.109639586178164 
427	 0.110459188041265 
428	 0.111266129986703 
429	 0.11186207087559 
430	 0.112622234699602 
431	 0.113581395071672 
432	 0.114505181098097 
433	 0.115082578760037 
434	 0.116056599131187 
435	 0.117029247145928 
436	 0.117761853055888 
437	 0.118393805586996 
438	 0.119167904901157 
439	 0.119990456129409 
440	 0.120758856713714 
441	 0.12161082347046 
442	 0.122410602222 
443	 0.123210515399316 
444	 0.124119776715998 
445	 0.125015613141717 
446	 0.125809013601287 
447	 0.126493084137253 
448	 0.12714048250413 
449	 0.127836169494226 
450	 0.128529902044375 
451	 0.129185803637761 
452	 0.12987096466358 
453	 0.130492062944317 
454	 0.131106231078113 
455	 0.131786595088603 
456	 0.132362183203513 
457	 0.132854364642471 
458	 0.133355295392933 
459	 0.133990499178907 
460	 0.134558575249881 
461	 0.135040453219914 
462	 0.135493534067574 
463	 0.136087099427902 
464	 0.136414305060752 
465	 0.136700648331289 
466	 0.137252704209356 
467	 0.13758883702098 
468	 0.13799666451273 
469	 0.138443166292607 
470	 0.138646464570421 
471	 0.139065739342369 
472	 0.139480480661984 
473	 0.139765705997854 
474	 0.140174068716486 
475	 0.140639478374374 
476	 0.141091280958365 
477	 0.141489074175244 
478	 0.141957262041501 
479	 0.142425259878221 
480	 0.142848124674214 
481	 0.143227001223345 
482	 0.143762238144953 
483	 0.144342477673941 
484	 0.144898724212534 
485	 0.145522850947224 
486	 0.146218580153251 
487	 0.146899929152536 
488	 0.147478187900548 
489	 0.147988458360646 
490	 0.148670347396669 
491	 0.149482162288484 
492	 0.150171346923943 
493	 0.150955127625927 
494	 0.151778534963282 
495	 0.152559855393067 
496	 0.153238674345725 
497	 0.154176706242376 
498	 0.155137056753408 
499	 0.155821676848883 
500	 0.156767599904875 
501	 0.157792030828744 
502	 0.158766445153838 
503	 0.159660524834386 
504	 0.160648950389222 
505	 0.161681215793288 
506	 0.162701829723955 
507	 0.163690124621068 
508	 0.16470576883725 
509	 0.165777097904352 
510	 0.166892368625877 
511	 0.167969435950625 
512	 0.168933070614465 
513	 0.169851808922467 
514	 0.17093195160731 
515	 0.172140569801404 
516	 0.173438447158009 
517	 0.174716781196366 
518	 0.17571909330241 
519	 0.176863060168392 
520	 0.178028151695152 
521	 0.178983374261168 
522	 0.180159805397945 
523	 0.181297558049357 
524	 0.182347981339001 
525	 0.183584518807798 
526	 0.184744085027717 
527	 0.185892560495869 
528	 0.18708199100658 
529	 0.188165017668041 
530	 0.189234143520477 
531	 0.190327601126562 
532	 0.191431046289844 
533	 0.192548832705202 
534	 0.193721596475194 
535	 0.194937335261159 
536	 0.196128287814641 
537	 0.197235416076005 
538	 0.198318750611772 
539	 0.199473968373905 
540	 0.200762226998273 
541	 0.201961168972445 
542	 0.203071450038718 
543	 0.20427797502671 
544	 0.205384900585031 
545	 0.20646047126841 
546	 0.207579167114556 
547	 0.208731883623169 
548	 0.209995116329194 
549	 0.211257899575254 
550	 0.212393670342085 
551	 0.213544439753723 
552	 0.214675859561958 
553	 0.215793992136622 
554	 0.216957587965285 
555	 0.218083243438814 
556	 0.219209855836931 
557	 0.220368454460423 
558	 0.221478471160247 
559	 0.222632305724277 
560	 0.223815468080149 
561	 0.224980737601174 
562	 0.226189465473439 
563	 0.227362806779405 
564	 0.228425675521209 
565	 0.229330379327914 
566	 0.230318201590702 
567	 0.231350457679373 
568	 0.232334577670142 
569	 0.233273549033694 
570	 0.234233591298963 
571	 0.235205767447146 
572	 0.236124674619513 
573	 0.237030567571894 
574	 0.237959536284675 
575	 0.23890714056084 
576	 0.239751454559653 
577	 0.240581257763605 
578	 0.241399244330283 
579	 0.242184321742917 
580	 0.243037276427838 
581	 0.24393329009826 
582	 0.244808931509411 
583	 0.245564468248077 
584	 0.246219361350051 
585	 0.246870717659596 
586	 0.247570886904299 
587	 0.248203562488362 
588	 0.248831043883077 
589	 0.249426631715535 
590	 0.249873355147473 
591	 0.250602656604037 
592	 0.251400231759163 
593	 0.252115732360343 
594	 0.252759103304582 
595	 0.25329597232895 
596	 0.253869462573037 
597	 0.254626589103079 
598	 0.255382804997802 
599	 0.256095944306224 
600	 0.256744018275215 
601	 0.257336003018157 
602	 0.257922538123599 
603	 0.25853465997544 
604	 0.259165983972205 
605	 0.259731197782074 
606	 0.260185081691202 
607	 0.260584135929522 
608	 0.261047292127516 
609	 0.261653197649806 
610	 0.262205196459972 
611	 0.262636249955239 
612	 0.263112976771564 
613	 0.263586278161899 
614	 0.264036625779476 
615	 0.264463175958744 
616	 0.26492166880957 
617	 0.26536937195641 
618	 0.265821961478376 
619	 0.266352105555232 
620	 0.266785859292822 
621	 0.267127560970064 
622	 0.267455547009938 
623	 0.267953961470323 
624	 0.268360201542932 
625	 0.268729882359062 
626	 0.269176666029197 
627	 0.269355797547987 
628	 0.26958728855029 
629	 0.270024040216083 
630	 0.270568592660815 
631	 0.271091687417755 
632	 0.271545175324601 
633	 0.271936378469825 
634	 0.272369994533075 
635	 0.272738883462038 
636	 0.273094829575924 
637	 0.273559175455093 
638	 0.273990642961802 
639	 0.274410861338618 
640	 0.274805200247715 
641	 0.275045702075072 
642	 0.275303763957347 
643	 0.275693070477115 
644	 0.276206590713237 
645	 0.276398924077995 
646	 0.276597603110167 
647	 0.276880783340945 
648	 0.277089157635158 
649	 0.277495201267786 
650	 0.277943148241227 
651	 0.278302534615973 
652	 0.278691005052354 
653	 0.279118975084141 
654	 0.27958576926223 
655	 0.280084251507225 
656	 0.280389597016882 
657	 0.280647025741425 
658	 0.280988486616801 
659	 0.281521615001961 
660	 0.281825844377631 
661	 0.28208102508294 
662	 0.282491994627685 
663	 0.282873367104259 
664	 0.283336546252846 
665	 0.283769320210663 
666	 0.283978490190118 
667	 0.284235563345682 
668	 0.284564696207363 
669	 0.284913461678908 
670	 0.285160163724165 
671	 0.285445898921571 
672	 0.285748522050297 
673	 0.286037958463838 
674	 0.286508556161282 
675	 0.286840870335304 
676	 0.287031170385378 
677	 0.287340971632479 
678	 0.287686655230011 
679	 0.288019895044662 
680	 0.288352914125597 
681	 0.28884923401846 
682	 0.289119538848497 
683	 0.289330074213543 
684	 0.289757732321891 
685	 0.290024801804559 
686	 0.28989466776562 
687	 0.289556885801598 
688	 0.289825851008237 
689	 0.290369527304966 
690	 0.291011371447074 
691	 0.291600663843024 
692	 0.291888789301645 
693	 0.292072097672613 
694	 0.292435762874326 
695	 0.293186703671948 
696	 0.2937757468993 
697	 0.29433260246926 
698	 0.294823674190125 
699	 0.294913290232355 
700	 0.295315541211614 
701	 0.295901422917551 
702	 0.296428263361733 
703	 0.297071221910003 
704	 0.297511257822112 
705	 0.29784864829571 
706	 0.298372991181347 
707	 0.298991288367081 
708	 0.299469290018356 
709	 0.299788588557508 
710	 0.300241841698895 
711	 0.300783118644163 
712	 0.301259704777524 
713	 0.301567020021615 
714	 0.301899771630036 
715	 0.302206623775042 
716	 0.30227605487684 
717	 0.301836942192303 
718	 0.301767152331435 
719	 0.30222841615009 
720	 0.30306114585321 
721	 0.303982595697577 
722	 0.30459182869435 
723	 0.304853762990615 
724	 0.304880915613882 
725	 0.305253499118449 
726	 0.305861828154263 
727	 0.306444488195771 
728	 0.306739445168585 
729	 0.307246790785014 
730	 0.307828804647584 
731	 0.308390660578285 
732	 0.309022458274853 
733	 0.309649861852866 
734	 0.310267767735187 
735	 0.31085044787458 
736	 0.311183355086033 
737	 0.311650330533248 
738	 0.312157264842627 
739	 0.312400950955416 
740	 0.312951366592769 
741	 0.313497714480162 
742	 0.313862115197172 
743	 0.314184589315276 
744	 0.314626182924098 
745	 0.315042235307782 
746	 0.315326890798609 
747	 0.315785024412118 
748	 0.316091951308805 
749	 0.316269738101967 
750	 0.316540187150511 
751	 0.317077618013535 
752	 0.317464314358235 
753	 0.317636564313258 
754	 0.318012600583853 
755	 0.318302942189609 
756	 0.318594493564164 
757	 0.318909496061747 
758	 0.31883180022123 
759	 0.318565607567753 
760	 0.318027051169317 
761	 0.317271458481057 
762	 0.317220720468914 
763	 0.317816694921606 
764	 0.318743380449124 
765	 0.319755635802933 
766	 0.320734840038747 
767	 0.321496929242086 
768	 0.322040740545826 
769	 0.322518382465739 
770	 0.322871519015333 
771	 0.323143930502966 
772	 0.323394933211271 
773	 0.323598282936321 
774	 0.32392562303202 
775	 0.324301908659025 
776	 0.324510856983892 
777	 0.324712850703508 
778	 0.324979310243611 
779	 0.325280668702271 
780	 0.325468097953015 
781	 0.325668092926474 
782	 0.32592628605966 
783	 0.326215200743946 
784	 0.326352406023015 
785	 0.326543876501834 
786	 0.326781978191056 
787	 0.326981405649439 
788	 0.327204520859711 
789	 0.327414979218063 
790	 0.327546021556434 
791	 0.327549968362976 
792	 0.327877530030285 
793	 0.328072205601571 
794	 0.327995336957743 
795	 0.328255766364465 
796	 0.328517910469508 
797	 0.328721921524494 
798	 0.328873391547555 
799	 0.328942004709076 
800	 0.329091219621013 
801	 0.329225826575493 
802	 0.329204833531133 
803	 0.329441889641313 
804	 0.329606945017626 
805	 0.329659134223425 
806	 0.329836731881934 
807	 0.329958151734327 
808	 0.329961715053542 
809	 0.329882981974104 
810	 0.329883723581213 
811	 0.32990820313494 
812	 0.32987010970216 
813	 0.329708590798513 
814	 0.329496301202907 
815	 0.329171456529805 
816	 0.329031418228634 
817	 0.329334912074922 
818	 0.329325091290458 
819	 0.329250854553985 
820	 0.329394387410149 
821	 0.329906495400406 
822	 0.329919415740626 
823	 0.329811236292749 
824	 0.329858463319906 
825	 0.329999352444502 
826	 0.329984451763259 
827	 0.329953307027461 
828	 0.329957682996481 
829	 0.329697201661478 
830	 0.329730236127432 
831	 0.329948451976017 
832	 0.330131427263185 
833	 0.330485950867676 
834	 0.330459804625193 
835	 0.330234285693962 
836	 0.330234638080884 
837	 0.330244209406924 
838	 0.330337391336665 
839	 0.330372043584318 
840	 0.330125046625394 
841	 0.330114046571505 
842	 0.330108771377642 
843	 0.33007424560109 
844	 0.330259736279571 
845	 0.330158916603983 
846	 0.330059001752962 
847	 0.330123489117232 
848	 0.330046224545056 
849	 0.330104651428281 
850	 0.330011930383009 
851	 0.329661610392189 
852	 0.329875247938088 
853	 0.329818161402373 
854	 0.329617929164589 
855	 0.329563803722781 
856	 0.329137469547812 
857	 0.328983799290056 
858	 0.329089454540027 
859	 0.32913203056453 
860	 0.329042125566541 
861	 0.329078736958502 
862	 0.329057741455998 
863	 0.328639831925548 
864	 0.329002349647609 
865	 0.329059679766107 
866	 0.32867266045232 
867	 0.32877173763662 
868	 0.328406468639705 
869	 0.328167295299783 
870	 0.32827906530871 
871	 0.32826094860874 
872	 0.328264948667839 
873	 0.328308951456941 
874	 0.328270183791308 
875	 0.327844754642187 
876	 0.327742709810902 
877	 0.327763308187663 
878	 0.327694332902477 
879	 0.327819385202449 
880	 0.327940922011746 
881	 0.32789517591438 
882	 0.327626737757 
883	 0.327312973099416 
884	 0.327163782265468 
885	 0.327216861070471 
886	 0.327380075477201 
887	 0.327426814334957 
888	 0.327384043103846 
889	 0.327303013239892 
890	 0.32717801234123 
891	 0.326681748748593 
892	 0.326349210409065 
893	 0.326228553876729 
894	 0.326097065003248 
895	 0.325941434402012 
896	 0.325807849931317 
897	 0.325668559271063 
898	 0.325485684603548 
899	 0.325472329327655 
900	 0.325442130168322 
901	 0.325130823703775 
902	 0.324566921531285 
903	 0.325536176844183 
904	 0.325373236321329 
905	 0.324491987893086 
906	 0.325096024305277 
907	 0.324987363661667 
908	 0.32482532891607 
909	 0.324788504510179 
910	 0.324562133329604 
911	 0.324617832416208 
912	 0.324330150490903 
913	 0.323884969456283 
914	 0.324077519731698 
915	 0.324852871279925 
916	 0.324610933046756 
917	 0.324067930495481 
918	 0.325214205373444 
919	 0.325567142678025 
920	 0.325106262282063 
921	 0.324414586053862 
922	 0.324271489652335 
923	 0.324740833176718 
924	 0.324578814757834 
925	 0.323779647995889 
926	 0.323420932082811 
927	 0.32296669682208 
928	 0.32204936410804 
929	 0.321252704247915 
930	 0.321909672025695 
931	 0.322702426811505 
932	 0.321551268531323 
933	 0.319147511888619 
934	 0.318524964594461 
935	 0.317123930186366 
936	 0.315670865959056 
937	 0.316370221497237 
938	 0.320013232816905 
939	 0.319376232156834 
940	 0.319929390425234 
941	 0.321235509562792 
942	 0.320782707022871 
943	 0.321209326769506 
944	 0.320580632851774 
945	 0.319868660485524 
946	 0.320652893725758 
947	 0.321003423442514 
948	 0.320037528821343 
949	 0.319339610869606 
950	 0.320240022957874 
951	 0.320722380926314 
952	 0.32050692019892 
953	 0.320127321447334 
954	 0.320270349256997 
955	 0.321182956071166 
956	 0.321944899639392 
957	 0.321966913141321 
958	 0.321241107134965 
959	 0.320475394603692 
960	 0.320123683280623 
961	 0.320327382142297 
962	 0.321501940420673 
963	 0.324101325758844 
964	 0.324473089099426 
965	 0.323862834342634 
966	 0.323089979470529 
967	 0.322121269116295 
968	 0.322953132238092 
969	 0.323389971199349 
970	 0.323638890651985 
971	 0.325008938771142 
972	 0.323401396741203 
973	 0.324811137161834 
974	 0.327147505545162 
975	 0.325646664152652 
976	 0.324118811640834 
977	 0.323761526155254 
978	 0.324768346931984 
979	 0.326090231242202 
980	 0.325227927293734 
981	 0.326033148911338 
982	 0.325976828888023 
983	 0.324458895782052 
984	 0.325791764797258 
985	 0.325072114963198 
986	 0.324591911795328 
987	 0.325296186534 
988	 0.325520161068306 
989	 0.324630319883632 
990	 0.325963128764376 
991	 0.328054727690156 
992	 0.327272342846262 
993	 0.326367429359789 
994	 0.326180175450124 
995	 0.326785824255791 
996	 0.327517077634919 
997	 0.326998506145589 
998	 0.327012669947602 
999	 0.325882200390576 
1000	 0.323800986341398 
1001	 0.319279682832762 
1002	 0.319619787163799 
1003	 0.319249384649504 
1004	 0.318193994445688 
1005	 0.318181394291798 
1006	 0.318765077401859 
1007	 0.319188631322397 
1008	 0.320283812975823 
1009	 0.320989776145256 
1010	 0.3205724461328 
1011	 0.3195902166674 
1012	 0.31832792048903 
1013	 0.318018456916799 
1014	 0.319074290029639 
1015	 0.319516453535439 
1016	 0.319358228421378 
1017	 0.320009630542774 
1018	 0.319614454371316 
1019	 0.318390622747783 
1020	 0.318252969548326 
1021	 0.319165887546116 
1022	 0.31907077613035 
1023	 0.318734892137045 
1024	 0.319094277857552 
1025	 0.318468463456417 
1026	 0.317998878874995 
1027	 0.318850051403928 
1028	 0.319392111314354 
1029	 0.319613292312427 
1030	 0.319571353700857 
1031	 0.318618141262661 
1032	 0.318237743367805 
1033	 0.318237122344378 
1034	 0.31895462015332 
1035	 0.319133574402162 
1036	 0.319440503330524 
1037	 0.319635728635519 
1038	 0.319794112114523 
1039	 0.31941638274088 
1040	 0.319435567158744 
1041	 0.319104341948301 
1042	 0.318051487294277 
1043	 0.318302548319425 
1044	 0.31922398505152 
1045	 0.319609167653674 
1046	 0.319578110219549 
1047	 0.319609305974453 
1048	 0.319323090868246 
1049	 0.318014826924363 
1050	 0.317524035465346 
1051	 0.317327081345874 
1052	 0.317237741825102 
1053	 0.317440391061149 
1054	 0.317655244621912 
1055	 0.317681543980597 
1056	 0.317536770043249 
1057	 0.316525896262442 
1058	 0.316107350904109 
1059	 0.31623306665772 
1060	 0.316617584628937 
1061	 0.31677590166965 
1062	 0.317048406920358 
1063	 0.317341243909249 
1064	 0.317630801888253 
1065	 0.317780115508291 
1066	 0.318125187896706 
1067	 0.318516301979751 
1068	 0.318933597387633 
1069	 0.318619427317892 
1070	 0.318972409993205 
1071	 0.319484117664434 
1072	 0.318820933460677 
1073	 0.318720801975257 
1074	 0.318861476723899 
1075	 0.317951676667866 
1076	 0.317823979664471 
1077	 0.318216367050789 
1078	 0.318258056348316 
1079	 0.318508854758847 
1080	 0.318561710701115 
1081	 0.318342188445244 
1082	 0.31820581325392 
1083	 0.317675266809734 
1084	 0.317559063497816 
1085	 0.317714360821947 
1086	 0.31825256006068 
1087	 0.317892102981337 
1088	 0.317677679292365 
1089	 0.317548499268486 
1090	 0.316950856246054 
1091	 0.316791602654087 
1092	 0.317266208559392 
1093	 0.317147294474895 
1094	 0.316592448533949 
1095	 0.316390144635764 
1096	 0.316256764739856 
1097	 0.316133806799509 
1098	 0.316136047503573 
1099	 0.316059574675968 
1100	 0.3155697167466 
1101	 0.315685827643738 
1102	 0.31644088568745 
1103	 0.31742310342532 
1104	 0.317653279580622 
1105	 0.318208931915858 
1106	 0.317843096750046 
1107	 0.315788588709595 
1108	 0.315348329194623 
1109	 0.315845503216046 
1110	 0.315271331152464 
1111	 0.314573654210403 
1112	 0.314080481179204 
1113	 0.312133566578758 
1114	 0.311435293832488 
1115	 0.313243726771237 
1116	 0.313374984180729 
1117	 0.313095460289153 
1118	 0.31182192174145 
1119	 0.311608429919433 
1120	 0.310872852710859 
1121	 0.310089275236643 
1122	 0.310232900438946 
1123	 0.310517197970734 
1124	 0.310602901453322 
1125	 0.309535322006303 
1126	 0.308349194528387 
1127	 0.308121912314008 
1128	 0.306688183799494 
1129	 0.306256197483044 
1130	 0.307891161383478 
1131	 0.308653146253122 
1132	 0.308594402220771 
1133	 0.308792023181254 
1134	 0.308213172285164 
1135	 0.309793114265433 
1136	 0.31060602956342 
1137	 0.31175371001712 
1138	 0.311727294956091 
1139	 0.311684371670945 
1140	 0.311268615326363 
1141	 0.30940600490938 
1142	 0.308946651884256 
1143	 0.30941570105501 
1144	 0.309239416542705 
1145	 0.309057201945131 
1146	 0.308962722890798 
1147	 0.30853884223857 
1148	 0.308424057757828 
1149	 0.308063917196408 
1150	 0.308620273037441 
1151	 0.310599889632275 
1152	 0.310954863072865 
1153	 0.311557476435964 
1154	 0.312683926076142 
1155	 0.312774266546236 
1156	 0.311730163895462 
1157	 0.311860940638399 
1158	 0.312068819260632 
1159	 0.312537334200835 
1160	 0.313839931699324 
1161	 0.314166801320169 
1162	 0.31386710333194 
1163	 0.314152845135109 
1164	 0.314723709449326 
1165	 0.314684050746553 
1166	 0.314313506765374 
1167	 0.314512069321778 
1168	 0.31476306912966 
1169	 0.31465571951076 
1170	 0.314675958646971 
1171	 0.3151926230104 
1172	 0.315463738072947 
1173	 0.315169415139021 
1174	 0.315473834551701 
1175	 0.316682812986996 
1176	 0.31684241349727 
1177	 0.316377220600886 
1178	 0.316377243814937 
1179	 0.316125269445568 
1180	 0.315994205749756 
1181	 0.316321331153988 
1182	 0.316391749656507 
1183	 0.316078771503429 
1184	 0.316038676222329 
1185	 0.3163584157329 
1186	 0.316223043132689 
1187	 0.316291279307179 
1188	 0.316341805803072 
1189	 0.31637984512558 
1190	 0.316344737333877 
1191	 0.316442490848069 
1192	 0.316610525409673 
1193	 0.316730961886374 
1194	 0.316906780869001 
1195	 0.317018860437742 
1196	 0.317151276488693 
1197	 0.317144233413309 
1198	 0.317050618255951 
1199	 0.316944791328916 
1200	 0.316421258604805 
1201	 0.316542293378087 
1202	 0.317453344932682 
1203	 0.317477390649289 
1204	 0.317916850875612 
1205	 0.317960127054045 
1206	 0.317011706987473 
1207	 0.316851614573097 
1208	 0.316771126247004 
1209	 0.31685712146873 
1210	 0.317061722880378 
1211	 0.31760929318511 
1212	 0.317773150102512 
1213	 0.317915035931692 
1214	 0.31803746057262 
1215	 0.318036375204052 
1216	 0.317993576110952 
1217	 0.317943479066758 
1218	 0.317907925553484 
1219	 0.317516238851731 
1220	 0.317623961255968 
1221	 0.318419188905622 
1222	 0.318461497731216 
1223	 0.318477857763089 
1224	 0.318915242615358 
1225	 0.318962629010451 
1226	 0.318941962788791 
1227	 0.318886837810389 
1228	 0.31876929613518 
1229	 0.318793309389067 
1230	 0.318795786879877 
1231	 0.318819318207871 
1232	 0.319013719424809 
1233	 0.319155194416056 
1234	 0.319281328972999 
1235	 0.319236751673235 
1236	 0.318967182684509 
1237	 0.31912580825942 
1238	 0.319670447613148 
1239	 0.319547911981076 
1240	 0.319060686109901 
1241	 0.319132436595457 
1242	 0.319169341011507 
1243	 0.319173034955278 
1244	 0.319653908017447 
1245	 0.320073528998485 
1246	 0.319948565810608 
1247	 0.319768747150276 
1248	 0.319712829304679 
1249	 0.319904395384054 
1250	 0.319977013091588 
1251	 0.319969853702389 
1252	 0.319974420821877 
1253	 0.320057621621696 
1254	 0.320076739135296 
1255	 0.319909386057861 
1256	 0.319812847867057 
1257	 0.319771238058323 
1258	 0.319880048220172 
1259	 0.320175500544563 
1260	 0.320217701495077 
1261	 0.320206614482068 
1262	 0.320217075513182 
1263	 0.319834338244854 
1264	 0.319231310525679 
1265	 0.319134515529574 
1266	 0.319641484561693 
1267	 0.319557272849858 
1268	 0.319005468395718 
1269	 0.319098530669128 
1270	 0.319286168826401 
1271	 0.319256209067301 
1272	 0.319595072167568 
1273	 0.319775444028114 
1274	 0.319483574841911 
1275	 0.319396879025385 
1276	 0.319812374787443 
1277	 0.319930918601643 
1278	 0.31949262329342 
1279	 0.319439951467256 
1280	 0.319635160164092 
1281	 0.319583565618056 
1282	 0.319426063262095 
1283	 0.319956112337062 
1284	 0.31998167295131 
1285	 0.319784985409652 
1286	 0.320067103195149 
1287	 0.320026615613978 
1288	 0.319497087565586 
1289	 0.319367723303299 
1290	 0.319604560068687 
1291	 0.319552910853509 
1292	 0.319470640189546 
1293	 0.319702293465069 
1294	 0.319652589943565 
1295	 0.319073748417612 
1296	 0.318928231841233 
1297	 0.31912776978967 
1298	 0.319072159483653 
1299	 0.318864009473483 
1300	 0.318824608392901 
1301	 0.318818041419404 
1302	 0.318924954515243 
1303	 0.318799120001817 
1304	 0.318606084761817 
1305	 0.318699994020076 
1306	 0.319029862620022 
1307	 0.319024424328566 
1308	 0.318526838368516 
1309	 0.318579921372257 
1310	 0.319052964862698 
1311	 0.319716065245131 
1312	 0.320588275512865 
1313	 0.320189788343221 
1314	 0.31834354575622 
1315	 0.317681768708895 
1316	 0.318706749447251 
1317	 0.318609471010046 
1318	 0.318768391322792 
1319	 0.319032333168921 
1320	 0.318606858638996 
1321	 0.318088415355559 
1322	 0.31827018649506 
1323	 0.318348781069038 
1324	 0.317888629173998 
1325	 0.317365093677381 
1326	 0.317365568443583 
1327	 0.317375415678933 
1328	 0.316816279124981 
1329	 0.315398650470663 
1330	 0.314758338340457 
1331	 0.315282636212346 
1332	 0.315341021592511 
1333	 0.315380739910455 
1334	 0.315578304979368 
1335	 0.314526460157483 
1336	 0.313978011238167 
1337	 0.314479970067949 
1338	 0.314902260217209 
1339	 0.31530392916947 
1340	 0.314838854935105 
1341	 0.313725386876734 
1342	 0.313613757041177 
1343	 0.314139017430097 
1344	 0.313860078993437 
1345	 0.314567099491873 
1346	 0.314531050794557 
1347	 0.310801139175007 
1348	 0.308677798470318 
1349	 0.307666164727303 
1350	 0.308434589428961 
1351	 0.306933176128055 
1352	 0.303278777887168 
1353	 0.30063835576208 
1354	 0.30281378797055 
1355	 0.296253330458657 
1356	 0.309426072175399 
1357	 0.381819199656167 
1358	 0.418923763468178 
1359	 0.429535014104034 
1360	 0.458525090088069 
1361	 0.376772191484897 
1362	 0.298489669775006 
1363	 0.553240107388293 
1364	 0.825941707307162 
1365	 0.749355719982709 
1366	 0.668737644131228 
1367	 0.471634363321399 
1368	 0.234782529927438 
1369	 0.180076799654685 
1370	 0.354355312704262 
1371	 0.324910825292921 
1372	 0.200640854240382 
1373	 0.130304354712535 
1374	 0.0000015 
1375	 0.0000015 
1376	 0.313976856529957 
1377	 0.366290173604063 
1378	 0.352399748790624 
1379	 0.350083846409534 
1380	 9.72595475532458E-02 
1381	 0.207302450996957 
1382	 0.807920772202567 
1383	 0.6048891939702 
1384	 0.0000015 
1385	 5.12233553979956E-02 
1386	 0.184073893778167 
1387	 0.197923838752552 
1388	 0.324982769393787 
1389	 0.330757058005862 
1390	 0.175395045398575 
1391	 0.24762631354848 
1392	 0.503543492811395 
1393	 0.555260934840977 
1394	 0.474437591604474 
1395	 0.403223438667396 
1396	 0.292279635612572 
1397	 0.245395897175721 
1398	 0.23559526377226 
1399	 0.289421656299108 
1400	 0.279071646494699 
1401	 0.285134134096458 
1402	 0.291524569650143 
1403	 0.286926180066927 
1404	 0.269327397168363 
1405	 0.268816175808368 
1406	 0.203595151633811 
1407	 0.174000364001401 
1408	 0.21345744407966 
1409	 0.242952938018349 
1410	 0.256115969807737 
1411	 0.257529642347277 
1412	 0.247369110012752 
1413	 0.248990451188447 
1414	 0.267282058608357 
1415	 0.277422381872941 
1416	 0.280295997966563 
1417	 0.283323320828708 
1418	 0.278490890817409 
1419	 0.272161032146548 
1420	 0.268148963802411 
1421	 0.267144858715634 
1422	 0.268861380285935 
1423	 0.268704232899264 
1424	 0.269423263333303 
1425	 0.273808446821149 
1426	 0.276901151451957 
1427	 0.278190187934279 
1428	 0.282136164369229 
1429	 0.281179231865093 
1430	 0.277693768117779 
1431	 0.281456723557533 
1432	 0.284239936653995 
1433	 0.284063930759677 
1434	 0.283395868100631 
1435	 0.283062875074526 
1436	 0.278312259127295 
1437	 0.276391043154617 
1438	 0.276583615287665 
1439	 0.278099182809425 
1440	 0.276001387395212 
1441	 0.278752822023534 
1442	 0.283946783093985 
1443	 0.282272375411707 
1444	 0.282088301152211 
1445	 0.283781250201483 
1446	 0.283912527041919 
1447	 0.285459509291844 
1448	 0.285180780529066 
1449	 0.28494168247723 
1450	 0.285528371676013 
1451	 0.285458939677699 
1452	 0.28785228431828 
1453	 0.289948843248479 
1454	 0.290026416437116 
1455	 0.291091707033956 
1456	 0.292817245955678 
1457	 0.293407163474085 
1458	 0.294107671255235 
1459	 0.296273618573633 
1460	 0.297804854200802 
1461	 0.297725646972436 
1462	 0.297884464765976 
1463	 0.298400734654748 
1464	 0.29829435702444 
1465	 0.299833361778701 
1466	 0.302688944666751 
1467	 0.302792171035132 
1468	 0.301919655054445 
1469	 0.301946222425248 
1470	 0.301375523030664 
1471	 0.302261159388502 
1472	 0.301926444394813 
1473	 0.300288151651176 
1474	 0.299880996162878 
1475	 0.300271616392546 
1476	 0.299794395760461 
1477	 0.298856557351758 
1478	 0.300168722821085 
1479	 0.302156616367599 
1480	 0.303251080242821 
1481	 0.304782306374605 
1482	 0.306624362184915 
1483	 0.305493948595569 
1484	 0.30383835529817 
1485	 0.306320670038102 
1486	 0.309353556568944 
1487	 0.310762381409828 
1488	 0.311685569175546 
1489	 0.310663206090019 
1490	 0.309801494795616 
1491	 0.311651966764134 
1492	 0.313723292364291 
1493	 0.31476506505357 
1494	 0.315210599843222 
1495	 0.315048940060917 
1496	 0.314524771857748 
1497	 0.313945564560951 
1498	 0.314215653190467 
1499	 0.314793222619313 
1500	 0.315024265006509 
1501	 0.316013297306942 
1502	 0.31655916264236 
1503	 0.315908669571737 
1504	 0.315936937776144 
1505	 0.31617974281794 
1506	 0.315733006164919 
1507	 0.31559634978972 
1508	 0.316268339842147 
1509	 0.317004973262423 
1510	 0.317344600693001 
1511	 0.317665291083592 
1512	 0.317801883192353 
1513	 0.31728426867043 
1514	 0.317164322449461 
1515	 0.318094237304306 
1516	 0.318548785648434 
1517	 0.318293682787679 
1518	 0.318088196712078 
1519	 0.318036952893106 
1520	 0.31821730846593 
1521	 0.31821057360788 
1522	 0.318185770886093 
1523	 0.318354580421302 
1524	 0.318198807689118 
1525	 0.318181643326731 
1526	 0.318627676949373 
1527	 0.318866294011179 
1528	 0.318849093686971 
1529	 0.318583285539327 
1530	 0.31827798066285 
1531	 0.318329700546788 
1532	 0.318174996640964 
1533	 0.31802838681492 
1534	 0.318392597690575 
1535	 0.318574834003735 
1536	 0.318484834612967 
1537	 0.318344055307831 
1538	 0.318241312075676 
1539	 0.317532543119462 
1540	 0.31734708215663 
1541	 0.318103865143363 
1542	 0.318688032876058 
1543	 0.318832915770514 
1544	 0.318638778186062 
1545	 0.31791368157967 
1546	 0.317477010159254 
1547	 0.317685377230652 
1548	 0.317793813763691 
1549	 0.317795048836204 
1550	 0.317965484097957 
1551	 0.317763710351981 
1552	 0.317269368274448 
1553	 0.317150360051899 
1554	 0.317501647692085 
1555	 0.317991835387079 
1556	 0.317996272510218 
1557	 0.317752752643857 
1558	 0.317378841995684 
1559	 0.317039573410917 
1560	 0.317327903866431 
1561	 0.317272899364846 
1562	 0.316592319690274 
1563	 0.316559461337282 
1564	 0.316715678117183 
1565	 0.316302660202597 
1566	 0.316370672017469 
1567	 0.31620129674277 
1568	 0.315114855937898 
1569	 0.314964068236655 
1570	 0.315158615552327 
1571	 0.314604048135249 
1572	 0.314423898649676 
1573	 0.314673968648729 
1574	 0.314429239098777 
1575	 0.31423287061423 
1576	 0.314436400539787 
1577	 0.313886620992861 
1578	 0.313635985472815 
1579	 0.314177937115464 
1580	 0.3142327303482 
1581	 0.314218433296811 
1582	 0.314244981211261 
1583	 0.313588657605038 
1584	 0.312739862258335 
1585	 0.312659496451434 
1586	 0.312849796820902 
1587	 0.313191662117913 
1588	 0.313253884122477 
1589	 0.312693705794336 
1590	 0.312321923161001 
1591	 0.312091176258262 
1592	 0.312546442402138 
1593	 0.313134842322448 
1594	 0.312692693591141 
1595	 0.312062162957837 
1596	 0.312036873916444 
1597	 0.312130432977677 
1598	 0.312687484319629 
1599	 0.313825967147854 
1600	 0.313345043410998 
1601	 0.312230041806863 
1602	 0.312509260014942 
1603	 0.312311421939388 
1604	 0.312143103531649 
1605	 0.313153121971436 
1606	 0.312925918959145 
1607	 0.311795570953218 
1608	 0.311838136870298 
1609	 0.311685846358719 
1610	 0.310813631171347 
1611	 0.311044639318665 
1612	 0.311162327080637 
1613	 0.310665741840979 
1614	 0.311075577318382 
1615	 0.311390463206192 
1616	 0.311313481190494 
1617	 0.311324125642871 
1618	 0.31171337898337 
1619	 0.312093245650109 
1620	 0.312181025100619 
1621	 0.312617055416853 
1622	 0.312599097345308 
1623	 0.311903558825096 
1624	 0.311234305154132 
1625	 0.311089853747683 
1626	 0.311295856558051 
1627	 0.311017032056713 
1628	 0.31072785371345 
1629	 0.310738013998114 
1630	 0.31067714159714 
1631	 0.311052093627214 
1632	 0.311544654474179 
1633	 0.311444745947533 
1634	 0.311062463051727 
1635	 0.310453075594085 
1636	 0.31004566844946 
1637	 0.310221165826386 
1638	 0.310208662904147 
1639	 0.310177837603775 
1640	 0.310449435401185 
1641	 0.310538526590285 
1642	 0.310081943464245 
1643	 0.309401991580189 
1644	 0.309564716308764 
1645	 0.30968882081979 
1646	 0.309746346908171 
1647	 0.310565653454997 
1648	 0.310315599435682 
1649	 0.309014565815478 
1650	 0.308407353222368 
1651	 0.308486472291908 
1652	 0.308906046995619 
1653	 0.309433896694136 
1654	 0.309187720582235 
1655	 0.30866494500075 
1656	 0.308092474002405 
1657	 0.307383685291578 
1658	 0.307946910530252 
1659	 0.308738802896304 
1660	 0.309087127204665 
1661	 0.309663684652926 
1662	 0.309600344114139 
1663	 0.309178136490876 
1664	 0.308944216609882 
1665	 0.308707851793266 
1666	 0.308459035057207 
1667	 0.308665917768565 
1668	 0.309072214264094 
1669	 0.308885286909455 
1670	 0.308230953032373 
1671	 0.30746178087272 
1672	 0.307074661209805 
1673	 0.306941403866394 
1674	 0.307083707628306 
1675	 0.307756802727112 
1676	 0.308141174489378 
1677	 0.308143849767543 
1678	 0.308104349883741 
1679	 0.307749829992714 
1680	 0.307275879708941 
1681	 0.306807854096152 
1682	 0.306854543102209 
1683	 0.306960128394731 
1684	 0.306561230502329 
1685	 0.306883352919831 
1686	 0.307601061551817 
1687	 0.307691117870214 
1688	 0.307639920640926 
1689	 0.307805508215581 
1690	 0.307457163523933 
1691	 0.307248705945302 
1692	 0.307121773180717 
1693	 0.305961802404707 
1694	 0.305371541801279 
1695	 0.304976951689731 
1696	 0.304765362033462 
1697	 0.306046178155467 
1698	 0.306433045666644 
1699	 0.305815859900117 
1700	 0.306074251758916 
1701	 0.30579038249465 
1702	 0.304554053796903 
1703	 0.304422539275916 
1704	 0.303329639311539 
1705	 0.303068859424135 
1706	 0.304690756532117 
1707	 0.30516299708068 
1708	 0.305153111377083 
1709	 0.305232429489263 
1710	 0.304455974879815 
1711	 0.304342388581397 
1712	 0.305360547308328 
1713	 0.30527252801842 
1714	 0.304323209627235 
1715	 0.304080610946686 
1716	 0.30364835000132 
1717	 0.303358131878238 
1718	 0.303985698035911 
1719	 0.304011043359014 
1720	 0.30327525659966 
1721	 0.30285562385814 
1722	 0.302132416741411 
1723	 0.302194768062539 
1724	 0.303344323887225 
1725	 0.303267078031166 
1726	 0.303095879458464 
1727	 0.302890914822361 
1728	 0.301340218323874 
1729	 0.300826078027122 
1730	 0.301623316306461 
1731	 0.301272450321912 
1732	 0.300196915466769 
1733	 0.299872418958363 
1734	 0.299377189897585 
1735	 0.299250563134708 
1736	 0.300055162247874 
1737	 0.300023008003202 
1738	 0.299387542308767 
1739	 0.299278662991225 
1740	 0.299264290054166 
1741	 0.299310011436254 
1742	 0.299647383721777 
1743	 0.29967978973271 
1744	 0.299596790106842 
1745	 0.299241749192319 
1746	 0.29876120851207 
1747	 0.298362352756148 
1748	 0.297465710562953 
1749	 0.297659248608506 
1750	 0.298521143674174 
1751	 0.298899336185316 
1752	 0.299255391111495 
1753	 0.298899570443459 
1754	 0.297915348481871 
1755	 0.297007520070968 
1756	 0.296548622524889 
1757	 0.296178205802242 
1758	 0.296106880641074 
1759	 0.29684855196562 
1760	 0.297157847063348 
1761	 0.297794095603825 
1762	 0.29769811050343 
1763	 0.296543978645952 
1764	 0.295990262104878 
1765	 0.295660980380695 
1766	 0.294647092635712 
1767	 0.292544905417129 
1768	 0.292363263028847 
1769	 0.292815096982689 
1770	 0.293187397965176 
1771	 0.297006121828817 
1772	 0.296893982627219 
1773	 0.292255119951317 
1774	 0.291253309707516 
1775	 0.289376157884454 
1776	 0.289907725535217 
1777	 0.296896773182966 
1778	 0.297039133934962 
1779	 0.293080313950882 
1780	 0.291882618300722 
1781	 0.287207386790273 
1782	 0.28658365300371 
1783	 0.291539255883205 
1784	 0.292122848318856 
1785	 0.291082538720506 
1786	 0.291162764711506 
1787	 0.290560735193736 
1788	 0.289956297337584 
1789	 0.289494342244414 
1790	 0.290391726912252 
1791	 0.291364166301456 
1792	 0.291904251901229 
1793	 0.296021884414299 
1794	 0.294056185029707 
1795	 0.288618758206211 
1796	 0.284879901661909 
1797	 0.280356665153268 
1798	 0.27501114405183 
1799	 0.273454430130895 
1800	 0.275695621174143 
1801	 0.277986111282685 
1802	 0.291835450205045 
1803	 0.297361814566681 
1804	 0.2928423645015 
1805	 0.291556531827667 
1806	 0.282016988796015 
1807	 0.277312399878519 
1808	 0.280298403248065 
1809	 0.279205039372445 
1810	 0.271054920578155 
1811	 0.275799094848693 
1812	 0.304469493421774 
1813	 0.299856462921672 
1814	 0.284863427803476 
1815	 0.258512569763849 
1816	 0.140854116134315 
1817	 0.134125125053716 
1818	 0.255898930732989 
1819	 0.267226121958078 
1820	 0.289308723954905 
1821	 0.265429408045445 
1822	 0.233834083134671 
1823	 0.318068307840308 
1824	 0.530240485920375 
1825	 0.527759796268903 
1826	 0.362125557960439 
1827	 0.225447532666129 
1828	 8.31576863353427E-02 
1829	 0.108496269348128 
1830	 0.291592093934336 
1831	 0.404179950613787 
1832	 0.664023752248623 
1833	 0.796774815047735 
1834	 0.866162599220435 
1835	 4.61279212582003E-02 
1836	 0.125013796929552 
1837	 0.119924842188111 
1838	 0.0000015 
1839	 0.282380983512227 
1840	 8.35612894860843E-02 
1841	 0.0000015 
1842	 0.0000015 
1843	 0.0000015 
1844	 0.0000015 
1845	 0.0000015 
1846	 0.147133634786379 
1847	 0.351827419589776 
1848	 0.544997818729802 
1849	 0.597235939033583 
1850	 0.244800344850656 
1851	 0.205722278551902 
1852	 0.216321223360931 
1853	 0.432149442573297 
1854	 0.633463550179884 
1855	 0.66335412953323 
1856	 1.7830873981764 
1857	 4.72154744322361 
1858	 20.521489476758 
1859	 0.0000015 
1860	 0.0000015 
1861	 16.621498887763 
1862	 5.5702836850988 
1863	 5.09043262597112 
1864	 2.48136879047542 
1865	 1.21014986195101 
1866	 0.61459473024168 
1867	 1.89107256212402E-02 
1868	 7.79499111630117E-02 
1869	 0.301526220892635 
1870	 0.55345592032374 
1871	 0.545553559757983 
1872	 0.356643391720243 
1873	 0.290385191362434 
1874	 0.330908114249857 
1875	 2.63664700123628E-02 
1876	 5.18164508747488E-02 
1877	 0.27935334136474 
1878	 0.3309273978861 
1879	 0.273068735526873 
1880	 0.324815471885796 
1881	 0.852826368974723 
1882	 0.984769261401782 
1883	 0.803617568217773 
1884	 0.850418412059163 
1885	 1.47231306120826 
1886	 0.0000015 
1887	 0.0000015 
1888	 0.0000015 
1889	 1.74474328372691E-02 
1890	 0.428841308139833 
1891	 0.985199264328388 
1892	 1.57476987151925 
1893	 6.44796995655316 
1894	 1.68437927156739 
1895	 1.72397190072579 
1896	 1.66491853162164 
1897	 1.5838726552602 
1898	 1.67185809607802 
1899	 0.658817611318048 
1900	 0.54496522332955 
1901	 0.776376887571425 
1902	 0.812672068764375 
1903	 0.90287208714362 
1904	 1.42501679433503 
1905	 3.50992287426437 
1906	 4.62238277899183 
1907	 1.76028998079796 
1908	 5.83391651741538 
1909	 0.0000015 
1910	 0.0000015 
1911	 0.0000015 
1912	 1.711550332675 
1913	 0.689003754698218 
1914	 0.467752732377784 
1915	 0.295726871165793 
1916	 0.324367184776859 
1917	 0.53806702238376 
1918	 0.349373197243898 
1919	 9.30917186320336E-02 
1920	 9.04454366028196E-02 
1921	 0.159507568426606 
1922	 0.217883332586469 
1923	 0.329569153383287 
1924	 0.394458997107455 
1925	 0.46082264501165 
1926	 0.318604595296303 
1927	 0.287298988313207 
1928	 0.375925596186325 
1929	 0.407065954839423 
1930	 0.393252014902418 
1931	 0.307205271367409 
1932	 0.228997087222449 
1933	 0.317198614867036 
1934	 0.371059300512545 
1935	 0.325525375732984 
1936	 0.308097265168075 
1937	 0.272730447359976 
1938	 0.262127249547271 
1939	 0.24842800745991 
1940	 0.265332916681081 
1941	 0.271283994407018 
1942	 0.297810774356593 
1943	 0.296629612740696 
1944	 0.294266047053799 
1945	 0.329124050868073 
1946	 0.307728934513061 
1947	 0.294586799721589 
1948	 0.284600947945362 
1949	 0.277738178570123 
1950	 0.259376123892602 
1951	 0.246389676047513 
1952	 0.249386278774412 
1953	 0.260744987327318 
1954	 0.26325966912688 
1955	 0.246427562878021 
1956	 0.24778444796159 
1957	 0.249154905492465 
1958	 0.245723468310714 
1959	 0.24059392493347 
1960	 0.246137781008693 
1961	 0.251689249976081 
1962	 0.255262947503312 
1963	 0.260574506665175 
1964	 0.270684417437393 
1965	 0.271421036704872 
1966	 0.26594677887901 
1967	 0.263230326737807 
1968	 0.263960289473009 
1969	 0.263920400464079 
1970	 0.26165828276615 
1971	 0.263315967476309 
1972	 0.268056772351911 
1973	 0.268595022614973 
1974	 0.266913844644322 
1975	 0.268554402885459 
1976	 0.271017371732493 
1977	 0.2701455023666 
1978	 0.267581453972323 
1979	 0.273624266133442 
1980	 0.278456106221939 
1981	 0.274759002293917 
1982	 0.271521110598305 
1983	 0.274539762259474 
1984	 0.276231425537752 
1985	 0.275066781576591 
1986	 0.276228008683798 
1987	 0.282865810351119 
1988	 0.284713548123264 
1989	 0.280746941391045 
1990	 0.284880067427143 
1991	 0.291642854929581 
1992	 0.285286481806133 
1993	 0.282456347155962 
1994	 0.286739580179213 
1995	 0.287433109421546 
1996	 0.288062277137983 
1997	 0.2885371069286 
1998	 0.285673144403753 
1999	 0.284643208073938 
2000	 0.286647984024742 
2001	 0.285582444367125 
2002	 0.283672033476853 
2003	 0.284928781745133 
2004	 0.277187249709598 
2005	 0.274119635464988 
2006	 0.289813736811285 
2007	 0.288472981263891 
2008	 0.289192043162213 
2009	 0.295859875977033 
2010	 0.298968513325175 
2011	 0.30223445755723 
2012	 0.302362527640054 
2013	 0.300155307666968 
2014	 0.295959160117195 
2015	 0.287529632062704 
2016	 0.281233506451659 
2017	 0.274342305306594 
2018	 0.272010318316862 
2019	 0.272350303021666 
2020	 0.27400422109517 
2021	 0.282993074522108 
2022	 0.287836430286052 
2023	 0.289018415335807 
2024	 0.285842571466788 
2025	 0.288203576440893 
2026	 0.293583402263238 
2027	 0.294078659661855 
2028	 0.292940264149074 
2029	 0.293911762995478 
2030	 0.293621129347807 
2031	 0.291145711120854 
2032	 0.29270823792442 
2033	 0.299052236269408 
2034	 0.300102542645068 
2035	 0.297625561642854 
2036	 0.297373573244493 
2037	 0.297398471243149 
2038	 0.295882818121825 
2039	 0.293631057882002 
2040	 0.293008519776674 
2041	 0.291343352833935 
2042	 0.290367494945634 
2043	 0.289861562239449 
2044	 0.291538871873469 
2045	 0.295727983060436 
2046	 0.299188557321086 
2047	 0.295970063752314 
2048	 0.293365441469452 
2049	 0.29075128807008 
2050	 0.284355420515942 
2051	 0.282635794381963 
2052	 0.289725151190296 
2053	 0.290932256810356 
2054	 0.287176564396398 
2055	 0.288004296687817 
2056	 0.294286247642591 
2057	 0.294163434688793 
2058	 0.28809552178236 
2059	 0.288814999203079 
2060	 0.292025255361217 
2061	 0.291997233464455 
2062	 0.292446799819514 
2063	 0.297736449794718 
2064	 0.29948798457988 
2065	 0.292688556805944 
2066	 0.290908886304179 
2067	 0.292159158097893 
2068	 0.291109529567521 
2069	 0.286209485622777 
2070	 0.287665644686231 
2071	 0.294810760717956 
2072	 0.295509642756521 
2073	 0.295780912802139 
2074	 0.295710968467191 
2075	 0.289916689589604 
2076	 0.288188186633026 
2077	 0.288589933428313 
2078	 0.292534317190122 
2079	 0.289456029748959 
2080	 0.286125186541339 
2081	 0.285850221928591 
2082	 0.286846669672557 
2083	 0.287018431961583 
2084	 0.290718844563546 
2085	 0.291634350781027 
2086	 0.288256221389829 
2087	 0.289229411860759 
2088	 0.295396324460038 
2089	 0.295811795029968 
2090	 0.292561320675394 
2091	 0.292922360275751 
2092	 0.293246925326748 
2093	 0.292360634641758 
2094	 0.292808304994627 
2095	 0.293956051215536 
2096	 0.293256378327713 
2097	 0.292155721480919 
2098	 0.29142857055689 
2099	 0.291025789949231 
2100	 0.291710554789082 
2101	 0.292298082010035 
2102	 0.2909717392189 
2103	 0.290495617548757 
2104	 0.289773041111462 
2105	 0.285257231697635 
2106	 0.283655140457804 
2107	 0.285883601941525 
2108	 0.286116296095835 
2109	 0.284751828923294 
2110	 0.284656458377677 
2111	 0.284614629933512 
2112	 0.284873686457945 
2113	 0.286397844559753 
2114	 0.287893702071014 
2115	 0.284637310265994 
2116	 0.283563076932968 
2117	 0.284276479824501 
2118	 0.285685032530977 
2119	 0.286694511771145 
2120	 0.292218086844867 
2121	 0.292108250004696 
2122	 0.286208838278561 
2123	 0.285830907645179 
2124	 0.288046743655003 
2125	 0.287051280894992 
2126	 0.284580267691897 
2127	 0.285395212291533 
2128	 0.287021174100979 
2129	 0.286894805063276 
2130	 0.288552307109439 
2131	 0.290277678053276 
2132	 0.29027449099397 
2133	 0.289718750087443 
2134	 0.288702248484576 
2135	 0.288737594483642 
2136	 0.287899004665173 
2137	 0.284525888538984 
2138	 0.28369794836838 
2139	 0.285577959294891 
2140	 0.286560436185749 
2141	 0.28794430435265 
2142	 0.287519836351992 
2143	 0.286340680760113 
2144	 0.286311377513844 
2145	 0.28508328868952 
2146	 0.284603116887018 
2147	 0.286802715022421 
2148	 0.28646658955573 
2149	 0.284262428064259 
2150	 0.282544180602847 
2151	 0.278684082507778 
2152	 0.277426400795371 
2153	 0.278071790653107 
2154	 0.278247419573319 
2155	 0.276537950998505 
2156	 0.277311038589185 
2157	 0.280218667492951 
2158	 0.278881236219475 
2159	 0.278207634952888 
2160	 0.278492260737953 
2161	 0.278924016265304 
2162	 0.27713011064123 
2163	 0.277485238771992 
2164	 0.281883958751381 
2165	 0.281833933561332 
2166	 0.278564453547757 
2167	 0.277648998872116 
2168	 0.275255423171689 
2169	 0.274760935014918 
2170	 0.278059194456223 
2171	 0.278198968464471 
2172	 0.276937475315266 
2173	 0.276356176587563 
2174	 0.274025804182511 
2175	 0.272689377589288 
2176	 0.271552242868284 
2177	 0.272411725566694 
2178	 0.271963189114155 
2179	 0.27221357602471 
2180	 0.272781987803041 
2181	 0.271789596261866 
2182	 0.272496195442239 
2183	 0.274772221641711 
2184	 0.274591403297909 
2185	 0.273510474883763 
2186	 0.273168964879824 
2187	 0.272244950192368 
2188	 0.270369209848572 
2189	 0.267915906063546 
2190	 0.267551463010485 
2191	 0.267754020758572 
2192	 0.266023579404835 
2193	 0.263952256866794 
2194	 0.264147887074134 
2195	 0.262881963328239 
2196	 0.263062900546502 
2197	 0.26892460274227 
2198	 0.270960623899349 
2199	 0.270583756880646 
2200	 0.269570109039381 
2201	 0.265144859441338 
2202	 0.263530681741935 
2203	 0.265830712166159 
2204	 0.266234233358446 
2205	 0.264753918977801 
2206	 0.265764929363932 
2207	 0.267387342867648 
2208	 0.267350941972205 
2209	 0.267406835736483 
2210	 0.271169649282127 
2211	 0.271187068968621 
2212	 0.266400260904887 
2213	 0.265023169509585 
2214	 0.265623739750057 
2215	 0.265062868070602 
2216	 0.264058937272635 
2217	 0.263134987145215 
2218	 0.26254758522674 
2219	 0.261399630336428 
2220	 0.259019021348618 
2221	 0.258533480410027 
2222	 0.258858825009474 
2223	 0.25915286047254 
2224	 0.261216890253334 
2225	 0.261117963291098 
2226	 0.257800218493831 
2227	 0.258303052307567 
2228	 0.259168546721363 
2229	 0.263112285120307 
2230	 0.266592448453879 
2231	 0.266888831349948 
2232	 0.266314315798546 
2233	 0.265081727425464 
2234	 0.265627015566281 
2235	 0.267430179932068 
2236	 0.267318304010488 
2237	 0.266542904141357 
2238	 0.264888913916285 
2239	 0.262471258484256 
2240	 0.261145014077954 
2241	 0.257905374271219 
2242	 0.25784998791847 
2243	 0.26062325754023 
2244	 0.261232128231142 
2245	 0.263745741348223 
2246	 0.263241489264144 
2247	 0.25798252546033 
2248	 0.258416624307916 
2249	 0.261620518446819 
2250	 0.262472177216547 
2251	 0.265746440477725 
2252	 0.2677494494377 
2253	 0.267221371594075 
2254	 0.265793185933914 
2255	 0.263875334682724 
2256	 0.263110162853668 
2257	 0.260507989250085 
2258	 0.259368936383883 
2259	 0.262322643877085 
2260	 0.262375552639015 
2261	 0.258573271495125 
2262	 0.258262502925734 
2263	 0.260168759329198 
2264	 0.259749389439584 
2265	 0.261833484651633 
2266	 0.262639753361922 
2267	 0.25879924909057 
2268	 0.255499036341693 
2269	 0.253675143295389 
2270	 0.255555724930198 
2271	 0.254614792076625 
2272	 0.251305729589829 
2273	 0.250545420843635 
2274	 0.248009524451972 
2275	 0.247964102496275 
2276	 0.252815663348075 
2277	 0.253439412869352 
2278	 0.251722287224726 
2279	 0.250918941364175 
2280	 0.248715777864955 
2281	 0.249112452366416 
2282	 0.251402847606983 
2283	 0.251842141099879 
2284	 0.252238306139059 
2285	 0.254148201439466 
2286	 0.257541453150701 
2287	 0.256813104400751 
2288	 0.254580661107961 
2289	 0.255061188003037 
2290	 0.251950475845672 
2291	 0.251606639732952 
2292	 0.257355388923665 
2293	 0.258854690605118 
2294	 0.259093780178474 
2295	 0.258008712294914 
2296	 0.253207825285892 
2297	 0.251880726774648 
2298	 0.251046094025001 
2299	 0.250342285514138 
2300	 0.253079748046606 
2301	 0.25353165247799 
2302	 0.250474785211385 
2303	 0.250309415152684 
2304	 0.251417319541908 
2305	 0.252642313764301 
2306	 0.256511473862861 
2307	 0.257839469158531 
2308	 0.257740468874666 
2309	 0.258064762417002 
2310	 0.255505121120437 
2311	 0.250916523357438 
2312	 0.248403224023442 
2313	 0.248995259137446 
2314	 0.247943062349099 
2315	 0.247365523134458 
2316	 0.245789425810364 
2317	 0.241626613123391 
2318	 0.242186791466362 
2319	 0.244375381960471 
2320	 0.251685978494052 
2321	 0.260062819904882 
2322	 0.259565250668689 
2323	 0.259058194609076 
2324	 0.256535415188942 
2325	 0.251226057739972 
2326	 0.254201852294145 
2327	 0.26055919479028 
2328	 0.263425679338237 
2329	 0.263009845785601 
2330	 0.265048405777333 
2331	 0.269311764710335 
2332	 0.262688258577032 
2333	 0.257534719327388 
2334	 0.255717865749418 
2335	 0.252889577878026 
2336	 0.247765265266456 
2337	 0.243682593268064 
2338	 0.242944901261322 
2339	 0.242422307399107 
2340	 0.241868077349315 
2341	 0.245377148206639 
2342	 0.246510076793057 
2343	 0.240512389160147 
2344	 0.243306751297565 
2345	 0.257453321798431 
2346	 0.262401507793405 
2347	 0.266391313156079 
2348	 0.263581537168047 
2349	 0.252637579569772 
2350	 0.247937130688156 
2351	 0.239332954116183 
2352	 0.235516916053273 
2353	 0.237235128271603 
2354	 0.238094296841799 
2355	 0.243481860489335 
2356	 0.242945868651344 
2357	 0.235287908552446 
2358	 0.235439668314536 
2359	 0.240247258783444 
2360	 0.238948570078915 
2361	 0.235283985859508 
2362	 0.239116592868878 
2363	 0.245646969862239 
2364	 0.244873732432619 
2365	 0.246495177617329 
2366	 0.251702748950722 
2367	 0.251993520001645 
2368	 0.248324451956916 
2369	 0.250418592407302 
2370	 0.247512612175042 
2371	 0.227238630473688 
2372	 0.223569410885095 
2373	 0.241117947741951 
2374	 0.241989830968486 
2375	 0.232414962101339 
2376	 0.225780440989245 
2377	 0.210094844100527 
2378	 0.208853077612216 
2379	 0.220930607551611 
2380	 0.224203833316207 
2381	 0.237165132709526 
2382	 0.233017334222304 
2383	 0.205397564289316 
2384	 0.206046569823451 
2385	 0.211425911560304 
2386	 0.215019577819038 
2387	 0.240954916501507 
2388	 0.247227146688191 
2389	 0.235730782029551 
2390	 0.234116577330707 
2391	 0.237499609813356 
2392	 0.235322926165625 
2393	 0.221866796021783 
2394	 0.22554127243191 
2395	 0.239054612082221 
2396	 0.237152393828676 
2397	 0.243788726354057 
2398	 0.253729731272804 
2399	 0.23788985915746 
2400	 0.244664770919555 
2401	 0.296785368443262 
2402	 0.299877387027344 
2403	 0.270209854856983 
2404	 0.272564031870078 
2405	 0.26503935731999 
2406	 0.249426182005791 
2407	 0.257083562439323 
2408	 0.257074551232482 
2409	 0.230653118839067 
2410	 0.223611037115132 
2411	 0.240655434634181 
2412	 0.235938855745595 
2413	 0.210941738756479 
2414	 0.214046178489346 
2415	 0.233295999167363 
2416	 0.238208315648985 
2417	 0.254980235888391 
2418	 0.258521647956041 
2419	 0.234027004510929 
2420	 0.234506058624145 
2421	 0.254959364440056 
2422	 0.254442985440069 
2423	 0.257278549162296 
2424	 0.248507930124949 
2425	 0.213175734590164 
2426	 0.203674961035368 
2427	 0.204609316394386 
2428	 0.200383950731854 
2429	 0.200354751535744 
2430	 0.212759364214483 
2431	 0.230805951320831 
2432	 0.234369456588904 
2433	 0.251963649332983 
2434	 0.261982209190092 
2435	 0.243035836222124 
2436	 0.235954674767627 
2437	 0.249840440053398 
2438	 0.232269454120067 
2439	 0.181286837201534 
2440	 0.191077343609827 
2441	 0.224413401918242 
2442	 0.23097685671896 
2443	 0.264331084517012 
2444	 0.253263642979429 
2445	 0.238749629467381 
2446	 0.245454064511905 
2447	 0.275327033219176 
2448	 0.313732377658441 
2449	 0.274136030085248 
2450	 0.172231392656559 
2451	 0.16087355687236 
2452	 0.189645477010158 
2453	 0.226004666269962 
2454	 0.291408987942402 
2455	 0.28224312580213 
2456	 0.209242895761823 
2457	 0.192418643703473 
2458	 0.197491354447303 
2459	 0.195045946822672 
2460	 0.217345597172328 
2461	 0.234745072329085 
2462	 0.230852062239709 
2463	 0.236552947327733 
2464	 0.243243664074456 
2465	 0.19613084959761 
2466	 0.146140427018054 
2467	 0.159778897152145 
2468	 0.141507467255876 
2469	 0.14143300159632 
2470	 0.219904317536288 
2471	 0.232080830490984 
2472	 0.20574242703923 
2473	 0.209178597425243 
2474	 0.236296990440625 
2475	 0.255626370042184 
2476	 0.252417328105127 
2477	 0.286855485531093 
2478	 0.270108754198797 
2479	 0.222665222749129 
2480	 0.296521861031006 
2481	 0.440874490043727 
2482	 0.45443476448838 
2483	 0.325888278374481 
2484	 0.177406331657574 
2485	 0.102357679274033 
2486	 0.105572679029265 
2487	 3.82026344146319E-02 
2488	 0.625778714248387 
2489	 0.779137445119883 
2490	 0.155421414926289 
2491	 0.180708469135985 
2492	 0.470474065330059 
2493	 0.246943813062457 
2494	 8.68664228466303E-02 
2495	 0.187821579944908 
2496	 0.127141650905144 
2497	 0.208077798626885 
2498	 0.766366648122137 
2499	 0.667502868647992 
2500	 8.79630518672199E-03 
