Wavelength	WH3018F00000.asd
350	 5.44276185490747E-02 
351	 4.58463441216366E-02 
352	 5.40493352836758E-02 
353	 5.13408331634681E-02 
354	 4.57091489034286E-02 
355	 4.86787061334747E-02 
356	 4.14968249136863E-02 
357	 4.25105043001441E-02 
358	 4.85822584900409E-02 
359	 4.76635687711395E-02 
360	 6.32389631834873E-02 
361	 6.12403985696585E-02 
362	 3.97227008688515E-02 
363	 3.40042953539204E-02 
364	 0.04441940802732 
365	 5.68653884582505E-02 
366	 5.93202923107589E-02 
367	 4.58994181332062E-02 
368	 4.34262686539442E-02 
369	 5.42625494920334E-02 
370	 6.83949946869832E-02 
371	 6.26781614167603E-02 
372	 4.85623276431013E-02 
373	 0.039429787601235 
374	 0.046174344780203 
375	 5.42514510236264E-02 
376	 5.70363647834386E-02 
377	 5.30978379968453E-02 
378	 4.58174590463163E-02 
379	 5.00272333888478E-02 
380	 5.63688916981851E-02 
381	 5.53234523320217E-02 
382	 0.050629376368635 
383	 4.90829990850758E-02 
384	 5.06929139109308E-02 
385	 5.25154009764952E-02 
386	 0.053756098972578 
387	 0.054193061807791 
388	 5.32848952049856E-02 
389	 5.07033692663886E-02 
390	 5.40804869433746E-02 
391	 5.59253325898749E-02 
392	 5.29449707084869E-02 
393	 5.34662785583614E-02 
394	 5.80425563649388E-02 
395	 6.09019838276857E-02 
396	 5.79309451761602E-02 
397	 5.88860308876142E-02 
398	 5.74681741980977E-02 
399	 5.56573039153078E-02 
400	 5.91724832326209E-02 
401	 5.85994530080082E-02 
402	 5.87180035984679E-02 
403	 6.08787103292766E-02 
404	 6.02993143776752E-02 
405	 6.05390175834791E-02 
406	 6.03933943856681E-02 
407	 0.05879126369326 
408	 5.75062133569689E-02 
409	 5.89512940951314E-02 
410	 6.06974403096269E-02 
411	 5.91778562290791E-02 
412	 5.74982270715361E-02 
413	 5.69007425099074E-02 
414	 5.78962865979019E-02 
415	 6.02251521957958E-02 
416	 5.99325901313826E-02 
417	 5.99754315702431E-02 
418	 6.15701024219677E-02 
419	 5.93925890506984E-02 
420	 5.95367360581864E-02 
421	 6.14102184134614E-02 
422	 0.06229942250742 
423	 6.08404681997452E-02 
424	 5.98482575821184E-02 
425	 6.07927884552718E-02 
426	 6.34540351746954E-02 
427	 6.23938554066642E-02 
428	 6.08991196214278E-02 
429	 6.13641864937029E-02 
430	 6.25843323430756E-02 
431	 6.38311814041647E-02 
432	 6.39862860369536E-02 
433	 6.26206865233165E-02 
434	 6.16753878980576E-02 
435	 6.22359193155975E-02 
436	 6.35678988617652E-02 
437	 6.39051685526305E-02 
438	 6.34634856025444E-02 
439	 6.34755750956681E-02 
440	 6.43855473005245E-02 
441	 6.53775701731341E-02 
442	 6.50132713386277E-02 
443	 6.42671518328673E-02 
444	 6.44045736978535E-02 
445	 6.51921653849753E-02 
446	 0.066250196350669 
447	 6.66328595149653E-02 
448	 6.54581676155064E-02 
449	 0.065286577010513 
450	 6.56491944192968E-02 
451	 6.60898966694157E-02 
452	 6.67728433292905E-02 
453	 6.65758798571256E-02 
454	 0.066137355308215 
455	 6.63016728809212E-02 
456	 6.69771738503645E-02 
457	 6.69032296783441E-02 
458	 6.63493841637121E-02 
459	 6.64659581327981E-02 
460	 6.68779883896842E-02 
461	 6.76019816082712E-02 
462	 6.82080841750738E-02 
463	 6.75410911933223E-02 
464	 0.067289671898062 
465	 0.06763350326773 
466	 0.068231538445276 
467	 0.068657527181169 
468	 6.85145353658913E-02 
469	 6.81025260491901E-02 
470	 0.068134192964727 
471	 6.84707615464088E-02 
472	 6.89585671432185E-02 
473	 6.92384135597708E-02 
474	 6.85951295158349E-02 
475	 6.87302366919079E-02 
476	 0.06928603534547 
477	 6.95287483243713E-02 
478	 6.99912579028976E-02 
479	 6.95589953658507E-02 
480	 6.89510185025789E-02 
481	 6.99217741856019E-02 
482	 6.99277457469645E-02 
483	 7.00529528357684E-02 
484	 7.06862485040766E-02 
485	 0.070010662545671 
486	 7.00078378240993E-02 
487	 7.07716236215557E-02 
488	 7.15678061536211E-02 
489	 7.09581145216708E-02 
490	 7.05490662431122E-02 
491	 7.09692836922028E-02 
492	 7.18539434347285E-02 
493	 7.22085991202261E-02 
494	 7.21242718588852E-02 
495	 7.20173759539492E-02 
496	 7.25707190986823E-02 
497	 0.073071913994614 
498	 0.073344361682074 
499	 7.34379997478847E-02 
500	 7.34571977828581E-02 
501	 7.37913025310415E-02 
502	 7.43201528839597E-02 
503	 7.44650573902432E-02 
504	 0.074349150635173 
505	 7.42682994061054E-02 
506	 7.44360433733334E-02 
507	 7.48192474379061E-02 
508	 7.51767531981065E-02 
509	 7.53539934818071E-02 
510	 7.53482220942979E-02 
511	 7.57383165826138E-02 
512	 0.076116002792939 
513	 7.63144443384545E-02 
514	 0.076508625702602 
515	 7.65577946630386E-02 
516	 7.68500244583719E-02 
517	 7.75328387070704E-02 
518	 7.78344337048075E-02 
519	 7.79177089142276E-02 
520	 7.79778944244583E-02 
521	 7.82097105093316E-02 
522	 0.078597798816495 
523	 7.88320459056895E-02 
524	 7.88417195934887E-02 
525	 7.88978556415662E-02 
526	 7.91292985088755E-02 
527	 7.96718634628953E-02 
528	 8.03879570624389E-02 
529	 8.02493043312041E-02 
530	 8.03394632066691E-02 
531	 8.07685153693639E-02 
532	 8.10417090968159E-02 
533	 8.15428717942056E-02 
534	 8.19923778065588E-02 
535	 8.21550817341389E-02 
536	 0.081948747786103 
537	 8.23274325667583E-02 
538	 8.28721001774106E-02 
539	 8.29649510959829E-02 
540	 8.32123798278934E-02 
541	 8.35196268382156E-02 
542	 8.38866036367755E-02 
543	 8.43810227143453E-02 
544	 8.45575143759738E-02 
545	 0.084585117294442 
546	 8.46996819988009E-02 
547	 8.50473049310763E-02 
548	 8.54915804093196E-02 
549	 0.085863885146535 
550	 8.60426173836791E-02 
551	 8.62181407179068E-02 
552	 8.66310908067109E-02 
553	 0.0871891476807 
554	 8.74574778465731E-02 
555	 0.087555999101998 
556	 8.76737076391208E-02 
557	 8.79636524029657E-02 
558	 8.84609345786627E-02 
559	 0.088749539522964 
560	 8.89606565857565E-02 
561	 8.94446550025707E-02 
562	 8.96536527493192E-02 
563	 8.99483321682386E-02 
564	 9.04112206057771E-02 
565	 9.05834985726099E-02 
566	 9.07415042076828E-02 
567	 9.10121503731028E-02 
568	 9.14203996577697E-02 
569	 9.17953598032633E-02 
570	 9.19524607402086E-02 
571	 9.20690930698111E-02 
572	 9.25352049245056E-02 
573	 0.092779339779393 
574	 9.29636359058941E-02 
575	 9.32357292317814E-02 
576	 9.34708912708504E-02 
577	 9.37690179237697E-02 
578	 9.41344470326784E-02 
579	 0.094506306210065 
580	 0.094679555342009 
581	 9.49405836795347E-02 
582	 9.52293853302547E-02 
583	 9.51309122506336E-02 
584	 9.54002331225318E-02 
585	 9.58117910653949E-02 
586	 9.60673542430789E-02 
587	 9.62614098556093E-02 
588	 9.64241725928762E-02 
589	 9.66485087093083E-02 
590	 9.69917507702239E-02 
591	 9.70466358785851E-02 
592	 0.097100525678641 
593	 9.73107488405449E-02 
594	 9.75697496961589E-02 
595	 9.77131934528968E-02 
596	 9.78706501073202E-02 
597	 9.81441175278539E-02 
598	 9.82128747731312E-02 
599	 9.83909819400795E-02 
600	 0.098661816157544 
601	 9.87865965296849E-02 
602	 9.88359157535861E-02 
603	 9.89951088796967E-02 
604	 9.93070530624961E-02 
605	 9.95310872799922E-02 
606	 9.96640911542428E-02 
607	 9.96987238774499E-02 
608	 9.96837383469061E-02 
609	 9.98842611942014E-02 
610	 0.100077145130144 
611	 0.100164410460057 
612	 0.10019203339181 
613	 0.100236293670414 
614	 0.100378828674899 
615	 0.100606340059229 
616	 0.100679858035954 
617	 0.100728019980842 
618	 0.100811176155851 
619	 0.100956013873143 
620	 0.101173796208108 
621	 0.101266509907663 
622	 0.101240116760411 
623	 0.101370449591319 
624	 0.101486254091997 
625	 0.101632452272591 
626	 0.10183447533404 
627	 0.101893325772924 
628	 0.101872936539593 
629	 0.101906947968104 
630	 0.102129306675658 
631	 0.102245092469494 
632	 0.102273765780139 
633	 0.102314019227128 
634	 0.102532507664411 
635	 0.102656975437328 
636	 0.102740977406764 
637	 0.102885509490214 
638	 0.102903967269947 
639	 0.102961576895481 
640	 0.103100224330646 
641	 0.103247068802583 
642	 0.103394650037904 
643	 0.103519574208357 
644	 0.103623435090261 
645	 0.103762792315426 
646	 0.103914577293158 
647	 0.104020407168438 
648	 0.104051719394165 
649	 0.10423099500032 
650	 0.104414874770095 
651	 0.104547765185972 
652	 0.104692848703741 
653	 0.104830895479596 
654	 0.104909617609285 
655	 0.104957368580263 
656	 0.105262921460952 
657	 0.105447456816492 
658	 0.105479734639533 
659	 0.105524689535224 
660	 0.105774433961104 
661	 0.106000566983044 
662	 0.106112256519592 
663	 0.106253200279475 
664	 0.10639204977927 
665	 0.106538007086554 
666	 0.10668211750053 
667	 0.106724569992484 
668	 0.106800909873672 
669	 0.106940422567992 
670	 0.107100251576667 
671	 0.107262031261921 
672	 0.107427958392555 
673	 0.107561117804711 
674	 0.107554047712355 
675	 0.107582596742648 
676	 0.107647881514403 
677	 0.107724476906373 
678	 0.107922473226601 
679	 0.108046664651975 
680	 0.108104826635155 
681	 0.108249462015336 
682	 0.108381509620118 
683	 0.108443295223493 
684	 0.108455825023093 
685	 0.108573761380594 
686	 0.108720535108956 
687	 0.108833488593461 
688	 0.108868518941398 
689	 0.108842035533104 
690	 0.108885480776677 
691	 0.109042653243673 
692	 0.10926264276585 
693	 0.10935518037935 
694	 0.109335882653427 
695	 0.109299711266925 
696	 0.109431575188025 
697	 0.109523100298705 
698	 0.109583032495432 
699	 0.109663966242795 
700	 0.109578934633158 
701	 0.109691084177553 
702	 0.109943437523291 
703	 0.109886093330866 
704	 0.109864904754963 
705	 0.109921038788604 
706	 0.110043038269366 
707	 0.110262287574096 
708	 0.110254195157893 
709	 0.110149960157018 
710	 0.110212717230141 
711	 0.110281002300665 
712	 0.110373355513299 
713	 0.110454030342583 
714	 0.110433769946943 
715	 0.110435352690447 
716	 0.110523783366169 
717	 0.110694008834846 
718	 0.110825937581592 
719	 0.110830046142468 
720	 0.110768570826353 
721	 0.110766764419744 
722	 0.110866525296493 
723	 0.110965698937723 
724	 0.11100971271496 
725	 0.111008059309487 
726	 0.111023930032364 
727	 0.111102456016954 
728	 0.111213848231616 
729	 0.111155447816096 
730	 0.11113562546156 
731	 0.111215360170081 
732	 0.111359544525413 
733	 0.111373430359089 
734	 0.11136733661117 
735	 0.111394875271088 
736	 0.111432436484398 
737	 0.111459372062002 
738	 0.111491175569811 
739	 0.111530553762456 
740	 0.111528271889426 
741	 0.111575984986933 
742	 0.111630924076052 
743	 0.111628593750805 
744	 0.111685616102445 
745	 0.111656227947047 
746	 0.111582686912865 
747	 0.111669185794501 
748	 0.111787751035644 
749	 0.11183181561063 
750	 0.11176921874219 
751	 0.11169474694297 
752	 0.111712472244395 
753	 0.111794592468502 
754	 0.111851007371083 
755	 0.11175987593165 
756	 0.111750937576132 
757	 0.111821016093247 
758	 0.111796256425727 
759	 0.111851240697781 
760	 0.111875933538577 
761	 0.111817493742754 
762	 0.111778983652236 
763	 0.111835150290717 
764	 0.111878039006839 
765	 0.111807957872569 
766	 0.111762153330492 
767	 0.111780260009036 
768	 0.111852725385668 
769	 0.111923110947326 
770	 0.111845109239946 
771	 0.111777081875581 
772	 0.111779282580681 
773	 0.111738011566733 
774	 0.111741278081224 
775	 0.111710972437113 
776	 0.111612283138397 
777	 0.111634444968442 
778	 0.111727474961064 
779	 0.111733784265157 
780	 0.111530660287161 
781	 0.111504171380468 
782	 0.11152070735386 
783	 0.111519011885127 
784	 0.111540313241186 
785	 0.111483685745406 
786	 0.111406530526432 
787	 0.111367155851721 
788	 0.111368470339544 
789	 0.111358181172581 
790	 0.111319156032478 
791	 0.111255151515814 
792	 0.111187324088809 
793	 0.111167646205114 
794	 0.111165811314014 
795	 0.111104583723442 
796	 0.1110215583055 
797	 0.110961532326368 
798	 0.110952211824467 
799	 0.110994007118729 
800	 0.110899486711074 
801	 0.110754114051777 
802	 0.110671615473965 
803	 0.110646571143763 
804	 0.110714151306188 
805	 0.110737934525333 
806	 0.110573786197356 
807	 0.110413008894635 
808	 0.110383319895955 
809	 0.110432107103008 
810	 0.110373826269384 
811	 0.110305237924256 
812	 0.110210451610538 
813	 0.110136721256492 
814	 0.110251633596372 
815	 0.11016388700399 
816	 0.109956394268468 
817	 0.109821835092751 
818	 0.109874451277524 
819	 0.109879585419095 
820	 0.109791792747593 
821	 0.109671894717388 
822	 0.109592104716978 
823	 0.10954413720949 
824	 0.109496832540678 
825	 0.109411696253341 
826	 0.109347549243718 
827	 0.109264696872108 
828	 0.109170069172316 
829	 0.109165706390573 
830	 0.109134862029812 
831	 0.109025164319539 
832	 0.108863984297322 
833	 0.108853321954455 
834	 0.108821047296903 
835	 0.108740761155246 
836	 0.108646247875691 
837	 0.108512531400946 
838	 0.108445012825274 
839	 0.108429999786446 
840	 0.108361655113887 
841	 0.108271044495896 
842	 0.108136131672964 
843	 0.108014245262504 
844	 0.108063318173448 
845	 0.108045943774314 
846	 0.107948989051551 
847	 0.107815010758089 
848	 0.107676049593048 
849	 0.107638730327147 
850	 0.107671219551107 
851	 0.107665847682508 
852	 0.10744037203766 
853	 0.107295390638741 
854	 0.107268477831133 
855	 0.107227207325942 
856	 0.107116931282413 
857	 0.107011966788601 
858	 0.106941060273823 
859	 0.106879658910972 
860	 0.106909801983789 
861	 0.106828975695396 
862	 0.106617610646017 
863	 0.106599439516685 
864	 0.106567276163056 
865	 0.106500705295752 
866	 0.106416504282208 
867	 0.106308544701554 
868	 0.106190591788063 
869	 0.106134010996389 
870	 0.106161432560763 
871	 0.106025382869704 
872	 0.1059086275965 
873	 0.10584934076855 
874	 0.105804659171417 
875	 0.10586156046765 
876	 0.105735906463432 
877	 0.105468051015872 
878	 0.105390969323238 
879	 0.105479834630665 
880	 0.105463084361636 
881	 0.105293508713738 
882	 0.105259321704623 
883	 0.105154859664844 
884	 0.105083487842399 
885	 0.105086856253047 
886	 0.104960659559352 
887	 0.104896628385866 
888	 0.104865654488368 
889	 0.104813462644882 
890	 0.104821909147503 
891	 0.104746562018668 
892	 0.104606182445461 
893	 0.104488686423816 
894	 0.104452134177757 
895	 0.104403884148111 
896	 0.104330274353251 
897	 0.104272951159886 
898	 0.104272408532277 
899	 0.104277370713769 
900	 0.104236903046478 
901	 0.104115795859305 
902	 0.103914760059514 
903	 0.103811951225678 
904	 0.103863810054939 
905	 0.103951396958099 
906	 0.103869196834759 
907	 0.103721281564427 
908	 0.103611353185026 
909	 0.103542903855091 
910	 0.103565180376458 
911	 0.103566735237802 
912	 0.103451941047097 
913	 0.103228012877118 
914	 0.103236522168424 
915	 0.103357692418359 
916	 0.103362985804149 
917	 0.103130854311209 
918	 0.102954931302027 
919	 0.102998116477553 
920	 0.10320985345057 
921	 0.103021143879979 
922	 0.102772296657041 
923	 0.102674638466256 
924	 0.102781764656464 
925	 0.102807128168757 
926	 0.102646329090938 
927	 0.102449392495747 
928	 0.102445153305753 
929	 0.102408043625887 
930	 0.102413603605627 
931	 0.102394133825784 
932	 0.102230630200026 
933	 0.10225248775154 
934	 0.102418839898443 
935	 0.102452296306108 
936	 0.102037260124999 
937	 0.101995622862886 
938	 0.102041059835111 
939	 0.102013974151311 
940	 0.10201979854223 
941	 0.101917839420483 
942	 0.101691085897319 
943	 0.101533512571153 
944	 0.101794699622645 
945	 0.101859954429654 
946	 0.101739767904338 
947	 0.101543156669156 
948	 0.101358520129109 
949	 0.101440531895793 
950	 0.101584181920563 
951	 0.101546217317204 
952	 0.10121398467548 
953	 0.10107432094275 
954	 0.101114704815318 
955	 0.10117798605707 
956	 0.101087170669891 
957	 0.10110598303474 
958	 0.101076207260438 
959	 0.100977844311231 
960	 0.101219865527319 
961	 0.101067075328962 
962	 0.100710513459556 
963	 0.100508124495717 
964	 0.100624485226469 
965	 0.100903394923565 
966	 0.10083542678602 
967	 0.100395106035595 
968	 0.100705988746716 
969	 0.10071848118991 
970	 0.100662174896666 
971	 0.100744190288651 
972	 0.100368856865623 
973	 0.100304546296934 
974	 0.100438414444044 
975	 0.100434025316878 
976	 0.100048285153334 
977	 0.100022006179987 
978	 0.100235926731594 
979	 0.100373216019119 
980	 0.100287393942628 
981	 9.97299064662591E-02 
982	 9.94866086899811E-02 
983	 9.99006049361051E-02 
984	 9.98436465087693E-02 
985	 9.99569043159302E-02 
986	 9.98839840886901E-02 
987	 9.94346640945184E-02 
988	 9.91995882327345E-02 
989	 9.94728380358073E-02 
990	 9.96674915980364E-02 
991	 9.93670493435253E-02 
992	 9.89284538422414E-02 
993	 9.94789724822874E-02 
994	 9.97102180808876E-02 
995	 9.90157777323105E-02 
996	 9.88845902846814E-02 
997	 9.88100808952155E-02 
998	 9.90741297079516E-02 
999	 9.95877486061151E-02 
1000	 9.95659745192014E-02 
1001	 0.100478901064029 
1002	 0.100470410285899 
1003	 0.100474925648351 
1004	 0.10035809659323 
1005	 0.100093167448583 
1006	 9.99268751081242E-02 
1007	 9.98597314278224E-02 
1008	 9.97432765743287E-02 
1009	 9.96792527560174E-02 
1010	 9.97328009292117E-02 
1011	 9.96981492159216E-02 
1012	 9.96114544315477E-02 
1013	 9.95760482177045E-02 
1014	 9.95487677312674E-02 
1015	 9.94847120761517E-02 
1016	 9.94627092607329E-02 
1017	 9.94155666449795E-02 
1018	 9.93656717322247E-02 
1019	 9.92830287037952E-02 
1020	 9.91813762201823E-02 
1021	 9.91177950554077E-02 
1022	 9.90511331733025E-02 
1023	 9.89877448190161E-02 
1024	 9.89359343931806E-02 
1025	 0.098941334495439 
1026	 9.88716607016609E-02 
1027	 9.87503267661592E-02 
1028	 9.86571323071076E-02 
1029	 9.85961019331796E-02 
1030	 9.85748518310744E-02 
1031	 9.85661083010012E-02 
1032	 9.85004100702169E-02 
1033	 9.84219543006416E-02 
1034	 9.82926085835145E-02 
1035	 0.098206674618823 
1036	 9.82316244984933E-02 
1037	 9.81612965118467E-02 
1038	 9.80375264158666E-02 
1039	 9.79826427261214E-02 
1040	 9.79632700630173E-02 
1041	 9.78401128152487E-02 
1042	 9.77347359224041E-02 
1043	 9.76846436970717E-02 
1044	 0.097563645732549 
1045	 9.75117864605385E-02 
1046	 9.74907652266412E-02 
1047	 9.74560692700846E-02 
1048	 9.74155200027843E-02 
1049	 9.73657406134757E-02 
1050	 9.72752162590265E-02 
1051	 9.71549846867962E-02 
1052	 9.70642505255537E-02 
1053	 0.096917553726212 
1054	 9.68536006374248E-02 
1055	 9.68506352519254E-02 
1056	 9.69365451564636E-02 
1057	 9.69209900508801E-02 
1058	 9.68991220678311E-02 
1059	 9.68330158019048E-02 
1060	 9.67547167384261E-02 
1061	 9.67383666690245E-02 
1062	 9.66958922061343E-02 
1063	 9.66075334176725E-02 
1064	 9.65311715150507E-02 
1065	 9.64725772921409E-02 
1066	 9.63895432042558E-02 
1067	 9.63792969289299E-02 
1068	 9.63524461474915E-02 
1069	 9.62682659997444E-02 
1070	 0.096129841454821 
1071	 0.095994698135973 
1072	 9.58195697052423E-02 
1073	 9.57307623959029E-02 
1074	 0.095689855544913 
1075	 9.56540678238879E-02 
1076	 9.56871021840314E-02 
1077	 9.56551116699097E-02 
1078	 9.55296109942753E-02 
1079	 9.54618180743685E-02 
1080	 9.54119254766893E-02 
1081	 9.52915675861432E-02 
1082	 9.52239804341764E-02 
1083	 9.51855786344239E-02 
1084	 9.51033977789558E-02 
1085	 9.50276197997699E-02 
1086	 9.49771097051449E-02 
1087	 9.48912101663932E-02 
1088	 9.47815954416761E-02 
1089	 9.47281021235784E-02 
1090	 9.46691840144069E-02 
1091	 9.46193750418424E-02 
1092	 9.45859370926245E-02 
1093	 9.45045595893091E-02 
1094	 9.44338315050259E-02 
1095	 9.43754423981569E-02 
1096	 9.43153214825108E-02 
1097	 9.42717788063387E-02 
1098	 9.41217278351467E-02 
1099	 9.39803529642644E-02 
1100	 9.39244932723583E-02 
1101	 9.39030370488678E-02 
1102	 9.38639039702603E-02 
1103	 9.39257486629375E-02 
1104	 9.39264303161008E-02 
1105	 9.37743645391984E-02 
1106	 9.36405688864867E-02 
1107	 9.35141153660338E-02 
1108	 9.34578552531032E-02 
1109	 9.34769638391837E-02 
1110	 0.093473175914192 
1111	 9.34426583803967E-02 
1112	 9.33981636978915E-02 
1113	 9.33543943935591E-02 
1114	 9.33250477833204E-02 
1115	 9.32976549476893E-02 
1116	 0.093290008576852 
1117	 9.32444287547018E-02 
1118	 9.31760483171839E-02 
1119	 9.31399200952361E-02 
1120	 9.30793425944663E-02 
1121	 9.30505911198931E-02 
1122	 0.093001773147137 
1123	 9.29407980634406E-02 
1124	 9.29400972831979E-02 
1125	 9.28941951268699E-02 
1126	 9.28782523179769E-02 
1127	 0.092863055537034 
1128	 9.27089974421609E-02 
1129	 9.26331602619329E-02 
1130	 9.26410098244589E-02 
1131	 9.25733844245893E-02 
1132	 9.25203958117239E-02 
1133	 9.24915608702785E-02 
1134	 0.09246127242835 
1135	 0.092404561755754 
1136	 9.23870852591517E-02 
1137	 9.23303661266049E-02 
1138	 0.09229315127253 
1139	 9.22085583119379E-02 
1140	 9.21132151235859E-02 
1141	 9.20971154731958E-02 
1142	 9.20660418210328E-02 
1143	 9.20539683576574E-02 
1144	 9.20120046423825E-02 
1145	 9.19590727133305E-02 
1146	 0.091949405374661 
1147	 9.19029852619245E-02 
1148	 9.18245725811189E-02 
1149	 9.17809289156517E-02 
1150	 9.17417173164498E-02 
1151	 9.16857067907179E-02 
1152	 9.16350486243932E-02 
1153	 0.091584515177711 
1154	 0.091528213719047 
1155	 9.14571597203611E-02 
1156	 9.14270774552821E-02 
1157	 9.13885531808332E-02 
1158	 9.13030878297298E-02 
1159	 9.12702147614243E-02 
1160	 9.12217831233694E-02 
1161	 9.11604279052356E-02 
1162	 9.11538656342628E-02 
1163	 9.11138661976851E-02 
1164	 0.091063784894069 
1165	 9.09942146183853E-02 
1166	 9.09427870374806E-02 
1167	 9.08771739392829E-02 
1168	 9.08584111693777E-02 
1169	 9.08930788948738E-02 
1170	 9.08752492329789E-02 
1171	 9.08791235608871E-02 
1172	 9.08066717121996E-02 
1173	 9.06982793902597E-02 
1174	 9.06194253452539E-02 
1175	 9.05567323507317E-02 
1176	 9.05133160839533E-02 
1177	 9.04801601811188E-02 
1178	 9.04371587830654E-02 
1179	 9.03768040418675E-02 
1180	 9.03437312210779E-02 
1181	 9.03130029653704E-02 
1182	 9.02655168619949E-02 
1183	 9.02244490075174E-02 
1184	 9.01834489382046E-02 
1185	 0.090136930944226 
1186	 9.00925336167186E-02 
1187	 9.00562302245291E-02 
1188	 9.00267367417847E-02 
1189	 8.99800354941705E-02 
1190	 8.99448058891702E-02 
1191	 0.089856049512142 
1192	 8.97629617828281E-02 
1193	 8.97448989920366E-02 
1194	 0.089710319315623 
1195	 8.96714315732117E-02 
1196	 8.96333729117933E-02 
1197	 8.95651343847606E-02 
1198	 8.95344043632388E-02 
1199	 8.95006454332756E-02 
1200	 8.94559047218746E-02 
1201	 8.94301899261958E-02 
1202	 8.93851538523973E-02 
1203	 8.93071150121973E-02 
1204	 8.92485231021001E-02 
1205	 8.91695608637593E-02 
1206	 8.91295430329955E-02 
1207	 8.91325723822432E-02 
1208	 8.91116120192671E-02 
1209	 8.91033356466778E-02 
1210	 0.08909900449849 
1211	 8.90819900375747E-02 
1212	 8.90291798430288E-02 
1213	 8.89594391195354E-02 
1214	 8.89273072980777E-02 
1215	 8.88726909719427E-02 
1216	 8.87933114773524E-02 
1217	 8.87812155250598E-02 
1218	 8.87478421094154E-02 
1219	 8.86985370617125E-02 
1220	 0.088634740888174 
1221	 8.86006475059586E-02 
1222	 8.85690455302851E-02 
1223	 0.088520864033815 
1224	 8.84836704010314E-02 
1225	 8.84381527146543E-02 
1226	 8.83572983019423E-02 
1227	 8.83058632301325E-02 
1228	 8.82866764733471E-02 
1229	 8.82566825680965E-02 
1230	 8.82189838199086E-02 
1231	 8.81936572685054E-02 
1232	 8.81690391758865E-02 
1233	 8.81315566310855E-02 
1234	 8.81019460692926E-02 
1235	 8.80421732028167E-02 
1236	 8.79900284375769E-02 
1237	 8.79544586788767E-02 
1238	 0.087909850652833 
1239	 8.78712884699439E-02 
1240	 8.78200199359982E-02 
1241	 0.087744954737159 
1242	 8.77024629642694E-02 
1243	 8.76753049354589E-02 
1244	 8.76293325004103E-02 
1245	 8.75931590510713E-02 
1246	 0.087566717029765 
1247	 8.75306650438539E-02 
1248	 8.74890936410258E-02 
1249	 8.74729747695487E-02 
1250	 8.74298806798294E-02 
1251	 8.73433256522982E-02 
1252	 8.72839640366515E-02 
1253	 8.72491985673722E-02 
1254	 0.087210358931179 
1255	 8.71690278775732E-02 
1256	 8.71590740025148E-02 
1257	 0.087149282189551 
1258	 8.70813523009826E-02 
1259	 8.70306863665475E-02 
1260	 8.69723216756822E-02 
1261	 8.69305081621235E-02 
1262	 8.68888160862401E-02 
1263	 8.68535655800254E-02 
1264	 8.68318129870315E-02 
1265	 8.68061661255535E-02 
1266	 8.67843071965569E-02 
1267	 8.67505376722274E-02 
1268	 8.67158611564712E-02 
1269	 8.66761209245015E-02 
1270	 8.66021513177758E-02 
1271	 8.65686047893751E-02 
1272	 8.65612032912864E-02 
1273	 8.65640759296477E-02 
1274	 8.65295919583095E-02 
1275	 8.64903116773775E-02 
1276	 8.64412884803112E-02 
1277	 8.63497970383044E-02 
1278	 8.62943651361023E-02 
1279	 8.62829092733899E-02 
1280	 8.62524258969612E-02 
1281	 8.62323053018528E-02 
1282	 8.61862400470694E-02 
1283	 8.61101289578576E-02 
1284	 8.60825152381156E-02 
1285	 8.60759669354361E-02 
1286	 8.60443156628617E-02 
1287	 8.60330405836763E-02 
1288	 8.60128902109057E-02 
1289	 8.59499481365919E-02 
1290	 8.59177688601393E-02 
1291	 8.59251848899619E-02 
1292	 8.59090390380929E-02 
1293	 8.58891309760682E-02 
1294	 8.58602905194781E-02 
1295	 8.58264381431011E-02 
1296	 0.085787813813435 
1297	 8.57388558405997E-02 
1298	 8.56718082611146E-02 
1299	 8.56531350928299E-02 
1300	 8.56321510037796E-02 
1301	 8.55813178653733E-02 
1302	 8.55406628566154E-02 
1303	 8.54958176507997E-02 
1304	 8.54181101653652E-02 
1305	 8.53668351579336E-02 
1306	 8.53342493708529E-02 
1307	 8.53093236722585E-02 
1308	 8.52937732722173E-02 
1309	 8.52605170496638E-02 
1310	 8.52491644552588E-02 
1311	 8.52100017016233E-02 
1312	 8.51313040669324E-02 
1313	 8.50709729257583E-02 
1314	 8.50063146183515E-02 
1315	 8.49597066719365E-02 
1316	 8.49412364289265E-02 
1317	 8.48861702527537E-02 
1318	 8.48136490666565E-02 
1319	 8.47553345151806E-02 
1320	 8.46588911894036E-02 
1321	 8.46072606929258E-02 
1322	 8.46068471234039E-02 
1323	 8.45970577443457E-02 
1324	 8.45656405365023E-02 
1325	 8.45363779763811E-02 
1326	 8.44961255453871E-02 
1327	 8.44414316061982E-02 
1328	 8.44024700892978E-02 
1329	 8.43701750082781E-02 
1330	 8.43519142285837E-02 
1331	 8.43453707350719E-02 
1332	 8.43267754142678E-02 
1333	 8.43283020141962E-02 
1334	 8.42929890847709E-02 
1335	 8.42134187659223E-02 
1336	 0.084179696368025 
1337	 8.41453319920896E-02 
1338	 8.41339772688902E-02 
1339	 8.41784064213654E-02 
1340	 0.084168375586099 
1341	 8.41323578436925E-02 
1342	 8.41099533866402E-02 
1343	 8.40669144506813E-02 
1344	 8.40397696088292E-02 
1345	 8.40391618981158E-02 
1346	 8.40191196245075E-02 
1347	 8.39980632995878E-02 
1348	 8.39493989034577E-02 
1349	 8.39137420170936E-02 
1350	 8.39118160314861E-02 
1351	 8.38943321311389E-02 
1352	 0.083880550878446 
1353	 8.38545568965143E-02 
1354	 8.38107261182493E-02 
1355	 8.37834142933999E-02 
1356	 8.37638577257101E-02 
1357	 8.37375093376716E-02 
1358	 0.083719156321541 
1359	 8.36800323516899E-02 
1360	 8.36163974863653E-02 
1361	 8.35828400591679E-02 
1362	 8.35520657303905E-02 
1363	 8.35276765595594E-02 
1364	 8.35252253207042E-02 
1365	 8.35081793375587E-02 
1366	 8.34897637992808E-02 
1367	 8.34636718630356E-02 
1368	 8.34362050065226E-02 
1369	 8.34014876167255E-02 
1370	 8.33513021114758E-02 
1371	 8.33084178831616E-02 
1372	 8.32616078432904E-02 
1373	 8.32239722418288E-02 
1374	 8.32042897669461E-02 
1375	 8.31620535478504E-02 
1376	 8.31111998817495E-02 
1377	 8.30617992936597E-02 
1378	 8.30084018584729E-02 
1379	 8.29343074283132E-02 
1380	 8.28575607436012E-02 
1381	 8.28106887421635E-02 
1382	 0.082751591190727 
1383	 0.08268271717505 
1384	 8.26264456065924E-02 
1385	 8.25807298153225E-02 
1386	 8.25333751577985E-02 
1387	 8.24950169423928E-02 
1388	 8.24402416639616E-02 
1389	 8.23702510822289E-02 
1390	 8.23242317726782E-02 
1391	 8.22935236875424E-02 
1392	 8.22313803637778E-02 
1393	 8.21698862120359E-02 
1394	 0.082104144200354 
1395	 0.081996494033435 
1396	 8.19276334271063E-02 
1397	 8.19070300744971E-02 
1398	 8.18404808360297E-02 
1399	 8.17451322336567E-02 
1400	 8.16719319483585E-02 
1401	 8.15915115941539E-02 
1402	 8.15132261961388E-02 
1403	 8.14553267158809E-02 
1404	 8.13889075693375E-02 
1405	 8.13045930281839E-02 
1406	 8.12307248978074E-02 
1407	 0.081156121262206 
1408	 8.10973917072017E-02 
1409	 8.10582655846973E-02 
1410	 0.081007907899658 
1411	 8.09358802825753E-02 
1412	 0.08089565826042 
1413	 8.08306514085525E-02 
1414	 8.07510333484438E-02 
1415	 8.07272360251849E-02 
1416	 8.07496742799163E-02 
1417	 8.07300218481729E-02 
1418	 8.07226336860007E-02 
1419	 0.080707718809696 
1420	 8.06643395950887E-02 
1421	 8.06438581868842E-02 
1422	 8.06407052677383E-02 
1423	 8.06367779391422E-02 
1424	 8.06278745394254E-02 
1425	 8.06327407063901E-02 
1426	 8.06606642536814E-02 
1427	 0.080667667257499 
1428	 8.06705646257017E-02 
1429	 0.080671295406567 
1430	 8.06697880890464E-02 
1431	 8.06561526243934E-02 
1432	 8.06225839669722E-02 
1433	 8.06133968931468E-02 
1434	 8.06137519097097E-02 
1435	 8.06009768074359E-02 
1436	 8.06093767256445E-02 
1437	 8.05909570298426E-02 
1438	 8.05175684622894E-02 
1439	 8.04946382288317E-02 
1440	 8.05065831075976E-02 
1441	 8.04940979583337E-02 
1442	 8.05010047679266E-02 
1443	 8.04902748377066E-02 
1444	 8.04325427967504E-02 
1445	 8.04066140067622E-02 
1446	 8.04178681672122E-02 
1447	 8.03989413350138E-02 
1448	 8.03687285089924E-02 
1449	 8.03385307198298E-02 
1450	 8.03168187996577E-02 
1451	 8.03014262582612E-02 
1452	 8.02870969027112E-02 
1453	 8.03084187469344E-02 
1454	 8.02793643971268E-02 
1455	 8.02058679562821E-02 
1456	 8.01880361232021E-02 
1457	 8.01826959033133E-02 
1458	 8.01699363087644E-02 
1459	 8.01799277247029E-02 
1460	 8.01760192829062E-02 
1461	 0.080160459471406 
1462	 8.01396925829074E-02 
1463	 8.01321808152598E-02 
1464	 8.00989530199763E-02 
1465	 0.08002676213231 
1466	 7.99894712550084E-02 
1467	 7.99577773038314E-02 
1468	 7.99294119032946E-02 
1469	 7.99161933396981E-02 
1470	 7.99013031530482E-02 
1471	 7.98790638922915E-02 
1472	 0.079875559500884 
1473	 7.99068217098231E-02 
1474	 7.98923307692565E-02 
1475	 0.079858312094665 
1476	 7.98361232278895E-02 
1477	 7.97775348207213E-02 
1478	 7.97560334589142E-02 
1479	 7.97772872318125E-02 
1480	 7.97719327496941E-02 
1481	 7.97593585762413E-02 
1482	 7.97570486533614E-02 
1483	 7.97522683148419E-02 
1484	 7.97458090228893E-02 
1485	 7.97562085022537E-02 
1486	 7.97508974148534E-02 
1487	 7.97225814181948E-02 
1488	 7.97092734026131E-02 
1489	 7.96983932960451E-02 
1490	 7.96874440261536E-02 
1491	 7.96934976309167E-02 
1492	 7.96837406863792E-02 
1493	 7.96553394656565E-02 
1494	 7.96344363160629E-02 
1495	 7.96573500830536E-02 
1496	 7.96435194260746E-02 
1497	 7.96089064784527E-02 
1498	 7.96220976707318E-02 
1499	 7.96092552060705E-02 
1500	 7.95789690940951E-02 
1501	 7.95677578862767E-02 
1502	 7.95875143459773E-02 
1503	 7.95750498109706E-02 
1504	 7.95476576628373E-02 
1505	 7.95199687178344E-02 
1506	 7.94788425584483E-02 
1507	 0.079464180900374 
1508	 7.94530843998506E-02 
1509	 7.94424909769124E-02 
1510	 7.94562028706822E-02 
1511	 7.94504097030736E-02 
1512	 7.94255385974095E-02 
1513	 7.94147108493663E-02 
1514	 7.94161327774452E-02 
1515	 7.93995790643501E-02 
1516	 7.93705717763981E-02 
1517	 7.93560008124096E-02 
1518	 7.93349394998322E-02 
1519	 0.079328970409353 
1520	 7.93477776532969E-02 
1521	 7.93415245367703E-02 
1522	 7.93241518091258E-02 
1523	 7.93157972944399E-02 
1524	 7.93046756056355E-02 
1525	 7.92925239401703E-02 
1526	 7.92897004862173E-02 
1527	 7.92731425202957E-02 
1528	 7.92366682075066E-02 
1529	 7.92182598004775E-02 
1530	 7.92087541231233E-02 
1531	 7.91935513136887E-02 
1532	 7.91786298594183E-02 
1533	 7.91679045887244E-02 
1534	 7.91680067625927E-02 
1535	 7.91468385462139E-02 
1536	 7.91021385391502E-02 
1537	 7.90913737182635E-02 
1538	 7.90810222040929E-02 
1539	 7.90737121277778E-02 
1540	 7.91223578573553E-02 
1541	 7.91150995885508E-02 
1542	 7.90527427333994E-02 
1543	 7.90243209127465E-02 
1544	 7.89842166157759E-02 
1545	 7.89598016325664E-02 
1546	 7.89694871125165E-02 
1547	 7.89586213699385E-02 
1548	 7.89383900446361E-02 
1549	 7.89206594248252E-02 
1550	 7.88923170959499E-02 
1551	 7.88782568994565E-02 
1552	 7.88710653010401E-02 
1553	 7.88627753947548E-02 
1554	 7.88646661762962E-02 
1555	 7.88650590269826E-02 
1556	 7.88634552424784E-02 
1557	 7.88675507176024E-02 
1558	 7.88858177092698E-02 
1559	 0.078881908450559 
1560	 7.88572618771424E-02 
1561	 7.88517188481976E-02 
1562	 7.88487480310697E-02 
1563	 7.88385181897931E-02 
1564	 7.88486272286958E-02 
1565	 7.88368389870594E-02 
1566	 7.87822314553588E-02 
1567	 0.078763508144735 
1568	 7.87568024959913E-02 
1569	 7.87274473822075E-02 
1570	 7.87448135302199E-02 
1571	 0.078757132467869 
1572	 7.87116195675367E-02 
1573	 7.86774692460567E-02 
1574	 7.86377544528577E-02 
1575	 7.86035498157025E-02 
1576	 7.86159235501346E-02 
1577	 7.86287891176422E-02 
1578	 7.86017895630348E-02 
1579	 7.85609842833504E-02 
1580	 7.85555511246637E-02 
1581	 7.85543314313802E-02 
1582	 7.85389666603753E-02 
1583	 0.078539428883811 
1584	 7.85289102471713E-02 
1585	 7.84958918158924E-02 
1586	 7.84737521487683E-02 
1587	 7.84565076993732E-02 
1588	 7.84213890385458E-02 
1589	 7.84033606585577E-02 
1590	 7.84226463041113E-02 
1591	 7.84305423453115E-02 
1592	 7.84139075816194E-02 
1593	 7.83953980126127E-02 
1594	 7.83656675755624E-02 
1595	 7.83280979853334E-02 
1596	 7.83254559269833E-02 
1597	 7.83329577171123E-02 
1598	 0.078303157255454 
1599	 7.82818754078405E-02 
1600	 7.82510386384328E-02 
1601	 7.81963210667582E-02 
1602	 0.078186382759239 
1603	 7.82023135347649E-02 
1604	 7.82040280807498E-02 
1605	 7.81707098882499E-02 
1606	 7.81197345009906E-02 
1607	 7.81057051841218E-02 
1608	 7.81144015294472E-02 
1609	 7.81331965684852E-02 
1610	 7.81560280628792E-02 
1611	 7.81400700200916E-02 
1612	 7.81181656428142E-02 
1613	 7.80610604956058E-02 
1614	 7.80431452259603E-02 
1615	 7.80287587401721E-02 
1616	 7.80236949688988E-02 
1617	 7.80500251988261E-02 
1618	 7.80279553911678E-02 
1619	 7.79798387782263E-02 
1620	 7.79636146482816E-02 
1621	 7.79400838717403E-02 
1622	 7.79137693483976E-02 
1623	 7.79145259700247E-02 
1624	 0.077858977340379 
1625	 0.077816973491605 
1626	 7.78298698025461E-02 
1627	 7.78273551303375E-02 
1628	 7.78228686679271E-02 
1629	 7.78014454471091E-02 
1630	 7.77691935737782E-02 
1631	 7.77511969156853E-02 
1632	 7.77482411017556E-02 
1633	 7.77767438057081E-02 
1634	 7.77987517145336E-02 
1635	 7.77922547297545E-02 
1636	 7.77508452229741E-02 
1637	 7.76929243196359E-02 
1638	 7.76356007809106E-02 
1639	 7.75895440808214E-02 
1640	 7.75963348529144E-02 
1641	 7.76008094763403E-02 
1642	 0.077603021363493 
1643	 7.76157951338687E-02 
1644	 7.75823089178755E-02 
1645	 0.077571820854152 
1646	 0.077580679216542 
1647	 0.077566434196116 
1648	 7.75768094481672E-02 
1649	 7.75854212932509E-02 
1650	 7.75774272712171E-02 
1651	 7.75541954219694E-02 
1652	 7.75110988413185E-02 
1653	 7.74877082965129E-02 
1654	 7.74849459468272E-02 
1655	 7.74782400847073E-02 
1656	 0.077467027797777 
1657	 7.74754431645041E-02 
1658	 7.74441362315173E-02 
1659	 7.73791040084242E-02 
1660	 7.74076417024179E-02 
1661	 0.077424884953774 
1662	 7.73640243521591E-02 
1663	 7.73510986741744E-02 
1664	 0.077321398222601 
1665	 7.72510260178896E-02 
1666	 0.077258652099946 
1667	 7.72869499169871E-02 
1668	 7.72706759775402E-02 
1669	 7.72385025494383E-02 
1670	 7.71978336054767E-02 
1671	 7.71889356298067E-02 
1672	 7.72007520294345E-02 
1673	 0.077195696995852 
1674	 0.077205806249354 
1675	 0.077180727065592 
1676	 7.71179505290577E-02 
1677	 7.71256074323621E-02 
1678	 7.71495291829247E-02 
1679	 7.71445595663854E-02 
1680	 7.71673508386169E-02 
1681	 7.71409301256177E-02 
1682	 7.70818515390191E-02 
1683	 7.70785539367559E-02 
1684	 7.70499350873415E-02 
1685	 7.70211495593087E-02 
1686	 7.70271753887617E-02 
1687	 7.70100436331631E-02 
1688	 7.70048994620166E-02 
1689	 7.70005580506336E-02 
1690	 7.69823738589187E-02 
1691	 7.69668946136075E-02 
1692	 7.69295777376792E-02 
1693	 7.68981140869191E-02 
1694	 0.076852837865462 
1695	 7.68022910230738E-02 
1696	 7.68184623978531E-02 
1697	 7.68070657533571E-02 
1698	 7.68083710066816E-02 
1699	 7.68052435294434E-02 
1700	 7.67807424538648E-02 
1701	 0.076759068913584 
1702	 7.67300422025199E-02 
1703	 7.67142219837725E-02 
1704	 7.67017397754735E-02 
1705	 7.67073014568594E-02 
1706	 7.67549890505134E-02 
1707	 7.67578115221092E-02 
1708	 0.076743961336209 
1709	 7.67026419962347E-02 
1710	 7.66101418139637E-02 
1711	 7.65813811454175E-02 
1712	 7.65729270433715E-02 
1713	 7.65518245351276E-02 
1714	 7.65499374935887E-02 
1715	 7.65404077882718E-02 
1716	 7.65226323387346E-02 
1717	 7.64998135377096E-02 
1718	 7.64870769362884E-02 
1719	 0.076471055140286 
1720	 7.64368180828907E-02 
1721	 0.076406065589731 
1722	 0.07638128922123 
1723	 7.63620419316148E-02 
1724	 7.63373967366876E-02 
1725	 7.63126072484704E-02 
1726	 7.63054611829627E-02 
1727	 0.076282409007406 
1728	 7.62498668926394E-02 
1729	 0.076215536909553 
1730	 7.61473952012651E-02 
1731	 7.61276975146213E-02 
1732	 7.61000492370424E-02 
1733	 7.60802897552738E-02 
1734	 7.61232303984489E-02 
1735	 7.61098758548574E-02 
1736	 0.076076437142535 
1737	 7.60699855544022E-02 
1738	 0.076044671384565 
1739	 7.60148371068205E-02 
1740	 7.59710906200115E-02 
1741	 0.075916112465173 
1742	 7.58746957760955E-02 
1743	 7.58428827959628E-02 
1744	 7.58260941095767E-02 
1745	 7.58353783905867E-02 
1746	 7.58194129280215E-02 
1747	 7.57797499878709E-02 
1748	 7.57574460342661E-02 
1749	 7.56741539878906E-02 
1750	 7.55943156621205E-02 
1751	 7.55977956405352E-02 
1752	 7.55783995437628E-02 
1753	 0.075592899841973 
1754	 7.56176926215058E-02 
1755	 0.075558642452784 
1756	 7.55301066511635E-02 
1757	 7.55179672460946E-02 
1758	 7.54862994453079E-02 
1759	 7.54727307105554E-02 
1760	 7.54266694644286E-02 
1761	 7.53909479768098E-02 
1762	 7.53911065352315E-02 
1763	 7.54159838641119E-02 
1764	 7.54128847568047E-02 
1765	 7.53771010362248E-02 
1766	 7.53495363848581E-02 
1767	 7.53087248911245E-02 
1768	 7.52753119840965E-02 
1769	 7.52655554706979E-02 
1770	 7.52329384354242E-02 
1771	 7.51756299594308E-02 
1772	 7.51631464216722E-02 
1773	 7.51681240529418E-02 
1774	 7.51556042927475E-02 
1775	 7.51634137652781E-02 
1776	 7.51099573397334E-02 
1777	 7.50662271142922E-02 
1778	 7.49742031612813E-02 
1779	 7.49221364476141E-02 
1780	 7.49044510957774E-02 
1781	 0.074852180511454 
1782	 7.48417638177207E-02 
1783	 7.48777044294958E-02 
1784	 7.49008031921943E-02 
1785	 7.49359783301051E-02 
1786	 7.49608636679083E-02 
1787	 7.49303044782794E-02 
1788	 7.49200292825585E-02 
1789	 7.48930184137216E-02 
1790	 7.48589068872865E-02 
1791	 0.074878385511993 
1792	 7.48703463618321E-02 
1793	 7.48713891079675E-02 
1794	 7.49156084031923E-02 
1795	 7.49116266312897E-02 
1796	 7.48673126342427E-02 
1797	 0.0748296566154 
1798	 7.47869196311519E-02 
1799	 7.47791447157194E-02 
1800	 7.47935690091639E-02 
1801	 7.48069585819395E-02 
1802	 0.074833961483922 
1803	 7.48359630405238E-02 
1804	 7.48169121931808E-02 
1805	 7.48046914439549E-02 
1806	 7.47556441451088E-02 
1807	 0.074718945226587 
1808	 7.47245835871803E-02 
1809	 7.46680956590877E-02 
1810	 7.46365986698529E-02 
1811	 7.46319398831667E-02 
1812	 7.46046217927926E-02 
1813	 7.46087396432458E-02 
1814	 7.45833373312208E-02 
1815	 7.45593767563777E-02 
1816	 7.45382037195764E-02 
1817	 7.45335621372141E-02 
1818	 7.45917633296212E-02 
1819	 7.45747127739326E-02 
1820	 7.45413494639462E-02 
1821	 7.45060029524605E-02 
1822	 7.43496448493154E-02 
1823	 7.42858875120829E-02 
1824	 7.42949283182829E-02 
1825	 0.074271835981014 
1826	 7.43163439218108E-02 
1827	 7.43029746201368E-02 
1828	 7.42041590380135E-02 
1829	 7.41309128395868E-02 
1830	 7.40965459823468E-02 
1831	 7.41971960006703E-02 
1832	 7.41710045473002E-02 
1833	 7.41253003527694E-02 
1834	 7.40795411008362E-02 
1835	 7.40308672991141E-02 
1836	 7.39892371114264E-02 
1837	 7.39604503473244E-02 
1838	 7.38839958347751E-02 
1839	 0.073836207300082 
1840	 7.37898071397784E-02 
1841	 7.37954864399258E-02 
1842	 7.38566865683234E-02 
1843	 7.38822431932804E-02 
1844	 7.39299257407438E-02 
1845	 7.39578089103786E-02 
1846	 7.39760469519205E-02 
1847	 7.39737523655457E-02 
1848	 7.39644655399657E-02 
1849	 7.39378051795243E-02 
1850	 7.39401868371527E-02 
1851	 7.39196989235426E-02 
1852	 7.38947326888697E-02 
1853	 7.39086712560901E-02 
1854	 7.38806094140951E-02 
1855	 7.37718728720303E-02 
1856	 7.37215061348462E-02 
1857	 7.36746438713105E-02 
1858	 7.36658128588812E-02 
1859	 7.36706535697716E-02 
1860	 7.36634233542967E-02 
1861	 7.36556329562905E-02 
1862	 7.36200248313854E-02 
1863	 7.35772245195194E-02 
1864	 7.35114620088653E-02 
1865	 7.34930173396711E-02 
1866	 7.34729295419459E-02 
1867	 7.34450487223576E-02 
1868	 7.34527878776987E-02 
1869	 0.073455226562431 
1870	 0.07334783138394 
1871	 7.32527775178675E-02 
1872	 7.31762674922599E-02 
1873	 7.31484384556922E-02 
1874	 7.31558856401035E-02 
1875	 7.33063296451893E-02 
1876	 7.33015076405257E-02 
1877	 0.073274578399289 
1878	 7.31733022321362E-02 
1879	 7.30438793020953E-02 
1880	 0.072919426619126 
1881	 7.28532545985023E-02 
1882	 7.28662113169219E-02 
1883	 0.072818204451064 
1884	 7.27034641761605E-02 
1885	 7.26321319982921E-02 
1886	 7.25659018494141E-02 
1887	 7.24939874138977E-02 
1888	 7.24282629699445E-02 
1889	 0.072387774673447 
1890	 7.22863887072052E-02 
1891	 7.20974309372451E-02 
1892	 7.19365425795767E-02 
1893	 7.18165651388589E-02 
1894	 7.16886966343065E-02 
1895	 0.071555475687446 
1896	 7.14131801208015E-02 
1897	 7.12082798549719E-02 
1898	 7.10561864114319E-02 
1899	 7.09215533971664E-02 
1900	 7.08356214649257E-02 
1901	 0.070727610721591 
1902	 7.06095736985004E-02 
1903	 7.05288825606154E-02 
1904	 7.03879724990188E-02 
1905	 7.02248280664654E-02 
1906	 7.01498048382285E-02 
1907	 7.00662148407638E-02 
1908	 6.99627234466014E-02 
1909	 6.99135814293307E-02 
1910	 0.06993929874986 
1911	 6.98946510003136E-02 
1912	 6.98219495545924E-02 
1913	 6.97981174979123E-02 
1914	 6.97313988537142E-02 
1915	 6.96642740576406E-02 
1916	 6.97068709375536E-02 
1917	 6.97315156000549E-02 
1918	 6.97088499454875E-02 
1919	 0.069662258966881 
1920	 0.069659491952817 
1921	 6.96352906002499E-02 
1922	 6.96073000463637E-02 
1923	 6.96313053874271E-02 
1924	 6.96625817074768E-02 
1925	 6.96536316253054E-02 
1926	 6.96580608772324E-02 
1927	 6.97313952738024E-02 
1928	 6.97475740452546E-02 
1929	 0.069725476678969 
1930	 6.97349065525454E-02 
1931	 6.97157399285566E-02 
1932	 6.96494951481659E-02 
1933	 6.95990069642187E-02 
1934	 6.96160154288294E-02 
1935	 6.96530021313086E-02 
1936	 6.97025260029335E-02 
1937	 6.97673999130904E-02 
1938	 6.98104774437083E-02 
1939	 6.97779364450027E-02 
1940	 6.97494826256875E-02 
1941	 6.97987615043513E-02 
1942	 6.98186404793878E-02 
1943	 6.98533754167915E-02 
1944	 0.069837860410678 
1945	 6.98167720858173E-02 
1946	 6.98464138791278E-02 
1947	 6.98764502466106E-02 
1948	 6.98892594024303E-02 
1949	 6.99720555359656E-02 
1950	 7.00050196500657E-02 
1951	 6.99090217350882E-02 
1952	 6.99131044825474E-02 
1953	 6.99725688557539E-02 
1954	 6.99990922438764E-02 
1955	 6.99814497666869E-02 
1956	 7.00749445038876E-02 
1957	 7.01336378319635E-02 
1958	 7.00843261261464E-02 
1959	 0.070131144655428 
1960	 0.07017395905846 
1961	 7.01615596425318E-02 
1962	 7.02166831332512E-02 
1963	 7.02310709211503E-02 
1964	 7.02202094698026E-02 
1965	 7.02897462165093E-02 
1966	 7.03265388993734E-02 
1967	 7.03550667727691E-02 
1968	 7.03656987430972E-02 
1969	 7.04110251085251E-02 
1970	 7.03999299953168E-02 
1971	 7.04220264829049E-02 
1972	 0.070529097057946 
1973	 7.05370707998941E-02 
1974	 7.04969075463115E-02 
1975	 7.04767078009232E-02 
1976	 7.04026376411452E-02 
1977	 7.03781079095105E-02 
1978	 0.070399532045385 
1979	 7.04893478352929E-02 
1980	 7.05709363915249E-02 
1981	 7.06465947451519E-02 
1982	 7.06503169308701E-02 
1983	 7.06487826472597E-02 
1984	 7.07281298069748E-02 
1985	 7.07759848556217E-02 
1986	 0.070850223859852 
1987	 7.09072370257091E-02 
1988	 7.08484439483896E-02 
1989	 7.08363285901122E-02 
1990	 7.09190611531758E-02 
1991	 7.09621682148742E-02 
1992	 7.10281028301296E-02 
1993	 7.10621497798239E-02 
1994	 0.071082967862562 
1995	 7.10582223303693E-02 
1996	 7.10570011070618E-02 
1997	 7.11545727929255E-02 
1998	 7.12119211664886E-02 
1999	 0.071220051598666 
2000	 7.12718853198203E-02 
2001	 7.12774027883075E-02 
2002	 0.071239484056244 
2003	 7.12710949426903E-02 
2004	 7.13128170380349E-02 
2005	 7.13344584860647E-02 
2006	 7.13688994684896E-02 
2007	 7.14668570267845E-02 
2008	 7.15319124609969E-02 
2009	 7.14947497798821E-02 
2010	 7.14678629773582E-02 
2011	 7.15111583022615E-02 
2012	 7.15560238866467E-02 
2013	 7.16087448806232E-02 
2014	 7.17184491940875E-02 
2015	 7.17818650521545E-02 
2016	 7.17931230998684E-02 
2017	 7.18270563397723E-02 
2018	 7.18847446021178E-02 
2019	 7.18900216669689E-02 
2020	 7.18485884512905E-02 
2021	 7.18547850943848E-02 
2022	 0.071913826574436 
2023	 7.19232547321348E-02 
2024	 7.19408971477845E-02 
2025	 7.20096189003953E-02 
2026	 7.19909165691622E-02 
2027	 7.19798955517992E-02 
2028	 7.20684920236034E-02 
2029	 7.21046241844939E-02 
2030	 7.21115621928165E-02 
2031	 7.20713545602277E-02 
2032	 7.20994580048484E-02 
2033	 7.21527856089922E-02 
2034	 7.21761808523106E-02 
2035	 7.22326160633269E-02 
2036	 7.22355678921794E-02 
2037	 7.22308214628026E-02 
2038	 7.22814085847465E-02 
2039	 7.23403487488192E-02 
2040	 7.24470065085854E-02 
2041	 7.25525891083931E-02 
2042	 7.25286965591164E-02 
2043	 7.25457745359065E-02 
2044	 7.25957560094719E-02 
2045	 7.26080347244246E-02 
2046	 7.26176148743129E-02 
2047	 7.26134850374375E-02 
2048	 7.25746922227743E-02 
2049	 7.25263978894054E-02 
2050	 7.25788813025274E-02 
2051	 7.26116602741841E-02 
2052	 7.26038972484672E-02 
2053	 0.072662524618167 
2054	 7.26944628158607E-02 
2055	 7.26583924963475E-02 
2056	 7.26918438333197E-02 
2057	 7.27505361312491E-02 
2058	 7.27480089177312E-02 
2059	 0.072778278353838 
2060	 7.28024133949954E-02 
2061	 0.072834508121531 
2062	 7.28424521513102E-02 
2063	 0.07283998052928 
2064	 7.28370992621288E-02 
2065	 7.28183192633872E-02 
2066	 0.072815675117004 
2067	 7.28205819044735E-02 
2068	 0.072758256088878 
2069	 7.27686896683094E-02 
2070	 7.28806653768132E-02 
2071	 7.29051170486197E-02 
2072	 7.29445510492055E-02 
2073	 7.30400776620135E-02 
2074	 7.30300998233059E-02 
2075	 7.29986016155884E-02 
2076	 7.29413841860829E-02 
2077	 7.29574921184426E-02 
2078	 0.072928429530057 
2079	 7.29295058112023E-02 
2080	 7.30026097079362E-02 
2081	 7.31098601423494E-02 
2082	 7.30991779585923E-02 
2083	 7.30308987109145E-02 
2084	 7.30613363160436E-02 
2085	 7.30722033594979E-02 
2086	 7.30350676841276E-02 
2087	 0.073108823152944 
2088	 7.31376035909209E-02 
2089	 7.30778010536928E-02 
2090	 7.30735374818231E-02 
2091	 7.30809312417483E-02 
2092	 7.31282312314793E-02 
2093	 7.32493096186018E-02 
2094	 0.073270917098879 
2095	 7.32815067318483E-02 
2096	 7.32735144722495E-02 
2097	 0.073215172207378 
2098	 7.31643498779928E-02 
2099	 7.31747179964666E-02 
2100	 7.32174704699935E-02 
2101	 7.32484920032466E-02 
2102	 7.32947859464818E-02 
2103	 7.32939711724716E-02 
2104	 7.32529642606565E-02 
2105	 7.32854199911148E-02 
2106	 7.33071087697986E-02 
2107	 7.33273236357192E-02 
2108	 7.34383794548897E-02 
2109	 7.34683278526394E-02 
2110	 7.33969083983454E-02 
2111	 7.34056154034058E-02 
2112	 7.34565077409629E-02 
2113	 7.34706308995514E-02 
2114	 7.34716443208365E-02 
2115	 7.35048952442632E-02 
2116	 7.35509208057345E-02 
2117	 7.35682175060682E-02 
2118	 7.36206405000015E-02 
2119	 7.36320694390198E-02 
2120	 7.36257381274604E-02 
2121	 7.36690193413865E-02 
2122	 7.36761816596561E-02 
2123	 7.36948922741409E-02 
2124	 7.37139779213857E-02 
2125	 7.36879690068541E-02 
2126	 7.37060829347463E-02 
2127	 7.37973467004177E-02 
2128	 7.38132098221271E-02 
2129	 7.37849264485552E-02 
2130	 7.37847002257324E-02 
2131	 7.37660882789604E-02 
2132	 7.37489477874293E-02 
2133	 7.37885078838246E-02 
2134	 7.38009547083674E-02 
2135	 7.37300213801849E-02 
2136	 0.073677011860261 
2137	 7.36754149431425E-02 
2138	 7.36534540285392E-02 
2139	 7.36652716108729E-02 
2140	 7.36949904021172E-02 
2141	 0.073667250617409 
2142	 7.35543673100586E-02 
2143	 7.35123180385773E-02 
2144	 7.35018551129885E-02 
2145	 7.34530331996115E-02 
2146	 7.34015708059953E-02 
2147	 7.33443510948333E-02 
2148	 7.32436953373036E-02 
2149	 7.31901530504188E-02 
2150	 7.31725176752625E-02 
2151	 7.31426719797021E-02 
2152	 7.30796993755736E-02 
2153	 7.29909097731005E-02 
2154	 7.29051408411746E-02 
2155	 7.28566410858003E-02 
2156	 7.28812942332368E-02 
2157	 7.28256837622449E-02 
2158	 7.26890069854372E-02 
2159	 7.26241475626246E-02 
2160	 7.25777500164702E-02 
2161	 7.24970457917279E-02 
2162	 7.24136307029708E-02 
2163	 7.23508792962338E-02 
2164	 7.22821891361106E-02 
2165	 7.21763210484081E-02 
2166	 7.20946699870415E-02 
2167	 0.072055298120965 
2168	 7.19940046175683E-02 
2169	 0.071912219805627 
2170	 7.18185231129838E-02 
2171	 7.17547925899942E-02 
2172	 7.16658143883652E-02 
2173	 7.15837145404654E-02 
2174	 0.071484136015194 
2175	 7.13581244606856E-02 
2176	 7.12633752392513E-02 
2177	 7.12267744632337E-02 
2178	 7.12168410920847E-02 
2179	 7.11320556763151E-02 
2180	 7.10344765408365E-02 
2181	 7.09520575489295E-02 
2182	 7.08520549217424E-02 
2183	 7.07480270192081E-02 
2184	 7.07123646393806E-02 
2185	 7.06577910104987E-02 
2186	 7.05308279553979E-02 
2187	 7.04517862515339E-02 
2188	 7.04776170993723E-02 
2189	 7.04180464113272E-02 
2190	 7.02846420144291E-02 
2191	 7.01833601686423E-02 
2192	 7.00662362339967E-02 
2193	 0.069969187939981 
2194	 6.99382068654319E-02 
2195	 6.98561311569615E-02 
2196	 6.97390683858711E-02 
2197	 6.97074773666146E-02 
2198	 6.95657407938111E-02 
2199	 6.94164944450589E-02 
2200	 6.94197418908075E-02 
2201	 0.069355045499077 
2202	 6.93200115434124E-02 
2203	 6.93633531662519E-02 
2204	 6.93711928839036E-02 
2205	 6.93985675281475E-02 
2206	 6.93168041993016E-02 
2207	 6.91271956711643E-02 
2208	 6.91151579542642E-02 
2209	 6.91435865201794E-02 
2210	 6.90821389751783E-02 
2211	 6.91155597226357E-02 
2212	 6.91106516204981E-02 
2213	 6.89289136512431E-02 
2214	 6.88540436463235E-02 
2215	 0.068904302456678 
2216	 6.89084973750299E-02 
2217	 6.88206163177813E-02 
2218	 6.87921155959156E-02 
2219	 0.068817531415848 
2220	 6.88161881474705E-02 
2221	 0.068763804142715 
2222	 6.87943016054688E-02 
2223	 6.88311219510467E-02 
2224	 6.88112047852234E-02 
2225	 6.88493877608574E-02 
2226	 6.88736400807724E-02 
2227	 6.88948251210869E-02 
2228	 6.89459291031683E-02 
2229	 6.89225705720189E-02 
2230	 6.88813175025295E-02 
2231	 6.88975290199782E-02 
2232	 6.89038496307434E-02 
2233	 6.89483292636366E-02 
2234	 0.069120732148494 
2235	 6.91283018947977E-02 
2236	 6.90307939892515E-02 
2237	 6.89828243074085E-02 
2238	 6.88845608395854E-02 
2239	 6.88284357301522E-02 
2240	 6.87724979671655E-02 
2241	 6.87807285948897E-02 
2242	 6.88182851267718E-02 
2243	 6.88913175152831E-02 
2244	 6.89338290535692E-02 
2245	 6.89026933864079E-02 
2246	 6.88542640743674E-02 
2247	 6.88159000984174E-02 
2248	 6.88710304715145E-02 
2249	 6.89820326653354E-02 
2250	 6.90088364418638E-02 
2251	 6.89645443444446E-02 
2252	 6.88675344699778E-02 
2253	 6.88427019714604E-02 
2254	 6.88563589503758E-02 
2255	 6.87771521874926E-02 
2256	 6.88576021398898E-02 
2257	 0.06897314870174 
2258	 6.89141286093194E-02 
2259	 0.06897667876653 
2260	 6.90372902029576E-02 
2261	 6.90299371689458E-02 
2262	 6.90296835848743E-02 
2263	 6.91224363483202E-02 
2264	 6.91226242137812E-02 
2265	 6.90000335945535E-02 
2266	 6.90084661447551E-02 
2267	 6.90967199865526E-02 
2268	 6.91221231607291E-02 
2269	 6.91334897653239E-02 
2270	 6.91663091256826E-02 
2271	 6.92127262407848E-02 
2272	 6.92146896195121E-02 
2273	 6.91938502188606E-02 
2274	 6.92537653948643E-02 
2275	 6.92684010709872E-02 
2276	 6.92371082747676E-02 
2277	 6.93481959129766E-02 
2278	 0.069365977712305 
2279	 6.92455988264675E-02 
2280	 6.92057307316026E-02 
2281	 6.91789295361917E-02 
2282	 6.91695682337766E-02 
2283	 6.91184621574122E-02 
2284	 6.90768479382472E-02 
2285	 6.92098826554711E-02 
2286	 6.92829044790992E-02 
2287	 6.91942709392238E-02 
2288	 6.92234060737914E-02 
2289	 6.92255708638053E-02 
2290	 6.89918177950325E-02 
2291	 0.068934324840331 
2292	 0.069064099865232 
2293	 6.90241155341678E-02 
2294	 6.89308502681002E-02 
2295	 6.89622321072291E-02 
2296	 6.90994782630404E-02 
2297	 0.069152953683005 
2298	 6.92694087508922E-02 
2299	 6.93237679535492E-02 
2300	 6.92965500920524E-02 
2301	 6.92305706875229E-02 
2302	 6.90883922351143E-02 
2303	 6.90863965473162E-02 
2304	 6.91632451829326E-02 
2305	 0.069161409303614 
2306	 6.91538731542417E-02 
2307	 6.91443945812912E-02 
2308	 6.91163718560666E-02 
2309	 6.90434067298742E-02 
2310	 6.89474748290384E-02 
2311	 6.89844090917469E-02 
2312	 6.91063760708375E-02 
2313	 6.89631894364524E-02 
2314	 6.90050912600346E-02 
2315	 6.90824656068706E-02 
2316	 6.88493846047853E-02 
2317	 6.88145044717856E-02 
2318	 6.89633459446725E-02 
2319	 0.068884196653416 
2320	 6.87989989316642E-02 
2321	 0.068882490114616 
2322	 6.89209278578152E-02 
2323	 6.89389413408764E-02 
2324	 6.90247228184018E-02 
2325	 6.90246637555417E-02 
2326	 6.89265614646611E-02 
2327	 6.88742362142269E-02 
2328	 6.88573285830992E-02 
2329	 6.88366326640144E-02 
2330	 6.88073680629749E-02 
2331	 6.87430726325207E-02 
2332	 6.87949826451266E-02 
2333	 6.89003747176884E-02 
2334	 6.89930036309453E-02 
2335	 6.90733661216512E-02 
2336	 6.90867346762789E-02 
2337	 6.91272657922997E-02 
2338	 6.90265104815478E-02 
2339	 6.89432815904631E-02 
2340	 6.90450438829682E-02 
2341	 6.90142302327621E-02 
2342	 6.88469931419062E-02 
2343	 6.88102188309854E-02 
2344	 6.89056457829087E-02 
2345	 6.87844070618736E-02 
2346	 6.87408714487687E-02 
2347	 6.89385968186511E-02 
2348	 6.89324007815094E-02 
2349	 6.86696545405978E-02 
2350	 6.87083554207943E-02 
2351	 6.89009217218886E-02 
2352	 6.87995175384617E-02 
2353	 6.86618725909689E-02 
2354	 6.86348510661373E-02 
2355	 6.84160835005233E-02 
2356	 6.84227654126845E-02 
2357	 0.068757820379236 
2358	 6.87833596678119E-02 
2359	 6.86317496587894E-02 
2360	 6.86878603395524E-02 
2361	 6.88111879142336E-02 
2362	 0.068799130754624 
2363	 6.87689108935827E-02 
2364	 6.88342348669105E-02 
2365	 6.88167824555332E-02 
2366	 6.88708562388462E-02 
2367	 6.91408178348611E-02 
2368	 6.91959481470868E-02 
2369	 6.90844202490646E-02 
2370	 6.91172778158326E-02 
2371	 6.92877064786204E-02 
2372	 6.92168177599573E-02 
2373	 6.89490002089495E-02 
2374	 6.88573278067311E-02 
2375	 6.86765777657624E-02 
2376	 6.85478905106104E-02 
2377	 6.85993446875314E-02 
2378	 6.86629437085354E-02 
2379	 6.85666084575018E-02 
2380	 0.068410619416211 
2381	 6.85481134290049E-02 
2382	 6.85396685410252E-02 
2383	 6.82766274031168E-02 
2384	 6.83898060709081E-02 
2385	 0.068553934801897 
2386	 6.86353412354263E-02 
2387	 6.87279262863824E-02 
2388	 6.85882799489724E-02 
2389	 6.84028673934419E-02 
2390	 6.82550332159041E-02 
2391	 6.81911537308888E-02 
2392	 6.83201024172738E-02 
2393	 6.84528965302624E-02 
2394	 6.84474410080284E-02 
2395	 6.83665164484775E-02 
2396	 6.84305388356053E-02 
2397	 6.85489094614242E-02 
2398	 6.85608271752678E-02 
2399	 6.86033835164715E-02 
2400	 6.85929232387657E-02 
2401	 6.84576102546478E-02 
2402	 6.82656227542448E-02 
2403	 0.068198610596917 
2404	 6.81162746454057E-02 
2405	 0.067880909723176 
2406	 6.79388387446535E-02 
2407	 6.82689987383197E-02 
2408	 6.84153535685751E-02 
2409	 6.82921623091347E-02 
2410	 6.82288957552329E-02 
2411	 6.80543345829233E-02 
2412	 6.78575694034698E-02 
2413	 6.80397584525362E-02 
2414	 6.80097165995253E-02 
2415	 6.78701853274083E-02 
2416	 6.79498805204619E-02 
2417	 6.79568597340815E-02 
2418	 6.79600338709499E-02 
2419	 6.79249652048594E-02 
2420	 6.78341054978778E-02 
2421	 6.81004402082254E-02 
2422	 6.84012383803463E-02 
2423	 6.80439037047027E-02 
2424	 6.76706177219581E-02 
2425	 6.74929736222858E-02 
2426	 6.72098834844562E-02 
2427	 6.73530897699915E-02 
2428	 6.76876088038226E-02 
2429	 6.73668468006901E-02 
2430	 6.68934514839891E-02 
2431	 6.69301403624312E-02 
2432	 6.70146290950541E-02 
2433	 6.71679566763582E-02 
2434	 6.73986793706648E-02 
2435	 6.71875716998275E-02 
2436	 6.70242910048888E-02 
2437	 6.73768863677458E-02 
2438	 0.067498002277906 
2439	 6.74272739051382E-02 
2440	 6.74341051805376E-02 
2441	 6.73058910495126E-02 
2442	 6.73341024261657E-02 
2443	 6.72918945211974E-02 
2444	 6.72485148750684E-02 
2445	 6.70644919605601E-02 
2446	 0.066653200867804 
2447	 0.066881409113406 
2448	 6.72020566974412E-02 
2449	 6.71348802799438E-02 
2450	 0.066952353156627 
2451	 6.63554499089896E-02 
2452	 6.57901357404686E-02 
2453	 6.59404062745015E-02 
2454	 6.61051927647005E-02 
2455	 6.67683572164529E-02 
2456	 6.70448164426575E-02 
2457	 0.067161211560484 
2458	 6.70384560284678E-02 
2459	 6.66821054858233E-02 
2460	 6.65586027095988E-02 
2461	 6.61183804015772E-02 
2462	 6.60847319986229E-02 
2463	 6.67140212941414E-02 
2464	 6.65532682251869E-02 
2465	 6.58891340694833E-02 
2466	 0.065844705957186 
2467	 6.57283075013874E-02 
2468	 6.56727049207025E-02 
2469	 6.62644649749658E-02 
2470	 6.64935460790882E-02 
2471	 6.60993692335987E-02 
2472	 6.61119908712389E-02 
2473	 0.066668774775649 
2474	 6.65797850925086E-02 
2475	 6.61300363707841E-02 
2476	 6.61589336062511E-02 
2477	 6.61447227481731E-02 
2478	 6.60103944312567E-02 
2479	 6.61405215840863E-02 
2480	 6.61170085215115E-02 
2481	 6.56284099416413E-02 
2482	 0.06481916892273 
2483	 6.48774548057047E-02 
2484	 6.44334103305211E-02 
2485	 6.47104262217167E-02 
2486	 6.58568460229545E-02 
2487	 6.59165678734966E-02 
2488	 6.59411575407877E-02 
2489	 6.61605559487825E-02 
2490	 6.52644464039234E-02 
2491	 6.47384336047711E-02 
2492	 6.52805395748956E-02 
2493	 6.52653185307786E-02 
2494	 6.49126238387405E-02 
2495	 0.06541897558396 
2496	 6.55092325558621E-02 
2497	 6.47586387724859E-02 
2498	 6.59424026843938E-02 
2499	 0.066604981413997 
2500	 6.57391476471509E-02 
