Wavelength	XK1Y08-100000.asd
350	 0.068295808533771 
351	 6.88503984835842E-02 
352	 6.93186143235263E-02 
353	 6.96586664904809E-02 
354	 7.03462955309607E-02 
355	 0.070961600066891 
356	 7.11842822259493E-02 
357	 7.11773863278056E-02 
358	 7.22069707243069E-02 
359	 7.24278563314088E-02 
360	 7.25772847086759E-02 
361	 7.34403586423601E-02 
362	 7.31622095243197E-02 
363	 7.33508121774314E-02 
364	 7.37641807833928E-02 
365	 7.36475456963098E-02 
366	 7.41122046525068E-02 
367	 7.48409844551051E-02 
368	 0.075397588820435 
369	 7.54683001213272E-02 
370	 7.58995033935673E-02 
371	 7.63331841263293E-02 
372	 7.67718526181807E-02 
373	 7.76939308337073E-02 
374	 7.77066139623968E-02 
375	 7.78741289685967E-02 
376	 7.87848732567698E-02 
377	 7.93833812657411E-02 
378	 8.00393980269701E-02 
379	 8.06291316365234E-02 
380	 8.10299046127665E-02 
381	 8.14914342482267E-02 
382	 8.19773945413096E-02 
383	 8.23916508743916E-02 
384	 8.27153184811575E-02 
385	 8.34693523438464E-02 
386	 8.43837687671262E-02 
387	 0.08511290451603 
388	 8.54158250382493E-02 
389	 8.62340334095482E-02 
390	 8.68631518489106E-02 
391	 8.70807346569847E-02 
392	 8.75387336966897E-02 
393	 8.81634423737249E-02 
394	 8.87566376035728E-02 
395	 8.91751485513374E-02 
396	 8.94364827765073E-02 
397	 8.99650711042037E-02 
398	 9.07857198408275E-02 
399	 0.091665251645957 
400	 9.20377459992625E-02 
401	 9.22084814215232E-02 
402	 9.23808347124371E-02 
403	 9.26860565582468E-02 
404	 9.32467199832162E-02 
405	 9.39871362980643E-02 
406	 9.47050803291417E-02 
407	 9.51163678243813E-02 
408	 9.54657471106224E-02 
409	 9.59471501997363E-02 
410	 9.65467874383349E-02 
411	 9.68413190245043E-02 
412	 9.73676123718933E-02 
413	 9.80307065827176E-02 
414	 0.098593763124894 
415	 9.91039756925683E-02 
416	 9.95413101119824E-02 
417	 0.100029821902685 
418	 0.100717709260066 
419	 0.101307172370462 
420	 0.101773639072893 
421	 0.102243286794259 
422	 0.102956128646776 
423	 0.103461023647886 
424	 0.103958808814935 
425	 0.104616938013641 
426	 0.105201291896743 
427	 0.105823098737816 
428	 0.106511860863123 
429	 0.107262307206164 
430	 0.108075347881197 
431	 0.108894257824911 
432	 0.109598791555853 
433	 0.110096888089123 
434	 0.110978000855462 
435	 0.111813967329991 
436	 0.112486009422904 
437	 0.113443443667541 
438	 0.114162510854244 
439	 0.114869900333675 
440	 0.115747766898299 
441	 0.116271735561109 
442	 0.117028031774923 
443	 0.117921237091054 
444	 0.118588834699449 
445	 0.11925210545138 
446	 0.119997024410091 
447	 0.120815786144864 
448	 0.121611035610004 
449	 0.122201248680539 
450	 0.122800269562181 
451	 0.123528983914359 
452	 0.12409114757038 
453	 0.124698098910091 
454	 0.125342642044681 
455	 0.125945455464868 
456	 0.126518206641665 
457	 0.127086672989344 
458	 0.127631317343376 
459	 0.128101243354055 
460	 0.128619230586335 
461	 0.129121535355343 
462	 0.129574557915608 
463	 0.130086558320143 
464	 0.130440535998451 
465	 0.130787353902181 
466	 0.131304547775173 
467	 0.131627580054779 
468	 0.131945813707528 
469	 0.132333437805854 
470	 0.132742666447061 
471	 0.133133291491238 
472	 0.13352745404123 
473	 0.133935497684857 
474	 0.134332901557583 
475	 0.134609293903337 
476	 0.134937702238848 
477	 0.135470264611467 
478	 0.135839358163125 
479	 0.136175907963257 
480	 0.136582726670661 
481	 0.137109655360334 
482	 0.137573875786093 
483	 0.138016197501488 
484	 0.138516980708129 
485	 0.13915921940342 
486	 0.139673642071149 
487	 0.140258448836376 
488	 0.141094463375362 
489	 0.141485844994227 
490	 0.142004488062071 
491	 0.142754598025324 
492	 0.1434414348374 
493	 0.144098399785887 
494	 0.14481156673884 
495	 0.145632892358637 
496	 0.146555541324433 
497	 0.147356581463296 
498	 0.148007087797374 
499	 0.148620832273465 
500	 0.149596892422956 
501	 0.150487536149551 
502	 0.151252099442817 
503	 0.152233076644151 
504	 0.15316806341274 
505	 0.154015406582893 
506	 0.154845438631931 
507	 0.155862790594845 
508	 0.156845455137487 
509	 0.157801274505922 
510	 0.158783879100817 
511	 0.159617664656573 
512	 0.160609918489524 
513	 0.16176541443323 
514	 0.162765163359691 
515	 0.163768329584298 
516	 0.164788169913864 
517	 0.165808699804364 
518	 0.166828742406781 
519	 0.167960783185417 
520	 0.168986250481823 
521	 0.169709733588095 
522	 0.170768255423001 
523	 0.171796591355817 
524	 0.172707223433974 
525	 0.173836394058971 
526	 0.174938229759719 
527	 0.175969011861786 
528	 0.176930557738475 
529	 0.177877063007028 
530	 0.178880714510875 
531	 0.179889486690209 
532	 0.180789227237451 
533	 0.181778675641487 
534	 0.182839398802558 
535	 0.183902510145621 
536	 0.184888509960049 
537	 0.185836637961583 
538	 0.18683098301246 
539	 0.187923448384094 
540	 0.188953644039486 
541	 0.189999797467841 
542	 0.191029950952079 
543	 0.191962975009473 
544	 0.193025854776062 
545	 0.19408634503387 
546	 0.19504843456934 
547	 0.195968547701743 
548	 0.197065980204887 
549	 0.198176071958788 
550	 0.199094519374074 
551	 0.200226007184609 
552	 0.201344276360933 
553	 0.20236827316083 
554	 0.203411040842399 
555	 0.20443432542328 
556	 0.205486903289729 
557	 0.206566338140311 
558	 0.207450949514527 
559	 0.208417772162271 
560	 0.209487009791884 
561	 0.210543087859868 
562	 0.211529271263873 
563	 0.21249470125698 
564	 0.213469826343621 
565	 0.214448594189436 
566	 0.215327586703529 
567	 0.216178611332239 
568	 0.217100555047465 
569	 0.218005120616577 
570	 0.218865476664857 
571	 0.219698933179813 
572	 0.220556179221724 
573	 0.221367683256372 
574	 0.222161174245443 
575	 0.222972001590827 
576	 0.223807570003182 
577	 0.224596395719643 
578	 0.225313123608648 
579	 0.225971597051366 
580	 0.226711922384485 
581	 0.227499432306098 
582	 0.22829162869224 
583	 0.229049394965804 
584	 0.22977364837278 
585	 0.230409020498699 
586	 0.230942445598022 
587	 0.231600799031141 
588	 0.232129344401707 
589	 0.232581507496053 
590	 0.233155111881905 
591	 0.233850668102649 
592	 0.234589971852951 
593	 0.235274923393942 
594	 0.235700328767147 
595	 0.236217672172223 
596	 0.236839646090916 
597	 0.23748660637866 
598	 0.2381919024328 
599	 0.23879870222048 
600	 0.239363911462304 
601	 0.240140897119066 
602	 0.240678660504954 
603	 0.241113511379878 
604	 0.241628887508535 
605	 0.242214982914685 
606	 0.242745098384436 
607	 0.243201156692179 
608	 0.243639343120107 
609	 0.244147140011043 
610	 0.244643055731904 
611	 0.24506911717696 
612	 0.245432921154921 
613	 0.245985820287461 
614	 0.246585464322127 
615	 0.24703156342981 
616	 0.247392648505181 
617	 0.247785335483204 
618	 0.248202744583815 
619	 0.24857247377735 
620	 0.248965267483921 
621	 0.249352052076481 
622	 0.249727303043692 
623	 0.250167600674885 
624	 0.250552909006202 
625	 0.250921531300637 
626	 0.251336785689938 
627	 0.251627286824299 
628	 0.251914004235162 
629	 0.252295537535717 
630	 0.252816852133427 
631	 0.253134044157991 
632	 0.253461770906999 
633	 0.253984147925571 
634	 0.25438499082138 
635	 0.25474784273835 
636	 0.25518150106399 
637	 0.255757438662107 
638	 0.256060458615389 
639	 0.256412699652936 
640	 0.256914241682019 
641	 0.25711648698518 
642	 0.257398463221101 
643	 0.257789639790005 
644	 0.258198610485377 
645	 0.258524044562236 
646	 0.258724358068139 
647	 0.258860871339325 
648	 0.259085869493418 
649	 0.259366072206071 
650	 0.259709529258862 
651	 0.26011417828529 
652	 0.260567091107548 
653	 0.26096675090829 
654	 0.26132650557851 
655	 0.261734987042083 
656	 0.262201946587804 
657	 0.26258403707996 
658	 0.26286262312181 
659	 0.263253357549309 
660	 0.263723482349907 
661	 0.264126127170424 
662	 0.264359246995832 
663	 0.264517723949953 
664	 0.264952183930797 
665	 0.265440033648223 
666	 0.265501773722019 
667	 0.265745320951796 
668	 0.266139672730612 
669	 0.266551734709346 
670	 0.266819124370001 
671	 0.267110895131096 
672	 0.267419124500082 
673	 0.267706478161953 
674	 0.268070270965291 
675	 0.268395252845005 
676	 0.268633504368757 
677	 0.268815583469964 
678	 0.269134601244902 
679	 0.269515170006453 
680	 0.269876765414912 
681	 0.270239896657106 
682	 0.270507666596183 
683	 0.270826813587309 
684	 0.271309672906508 
685	 0.271335448841585 
686	 0.271166454897121 
687	 0.271081476119236 
688	 0.27134380762275 
689	 0.271766766609253 
690	 0.272301988249273 
691	 0.272851083257909 
692	 0.273048031862817 
693	 0.273316528250629 
694	 0.273716355855155 
695	 0.274152577864576 
696	 0.274829455329575 
697	 0.275432388760146 
698	 0.275824103913463 
699	 0.276074788546135 
700	 0.276369291227482 
701	 0.27682555742707 
702	 0.277436782449629 
703	 0.277932768785319 
704	 0.2783091600348 
705	 0.278705107127705 
706	 0.279288935866707 
707	 0.279838569670112 
708	 0.280291359564468 
709	 0.280667242857633 
710	 0.281065967442836 
711	 0.281683897675793 
712	 0.282288684317733 
713	 0.282615213066602 
714	 0.28270520348096 
715	 0.28288336642391 
716	 0.28304406224476 
717	 0.282806050763628 
718	 0.282668254786581 
719	 0.282887145699496 
720	 0.283515863880971 
721	 0.284409549502525 
722	 0.285306646085152 
723	 0.28574361464172 
724	 0.285474426719406 
725	 0.285656194550631 
726	 0.286217427737817 
727	 0.286886782747654 
728	 0.287335567494517 
729	 0.287770508053298 
730	 0.2882593394485 
731	 0.288882636512752 
732	 0.28976641573443 
733	 0.290297956423895 
734	 0.29073797499565 
735	 0.291348892567932 
736	 0.291608073832564 
737	 0.292072477319089 
738	 0.292651117456908 
739	 0.292931615003236 
740	 0.293368910341328 
741	 0.293933454649401 
742	 0.294477164150151 
743	 0.294777322326987 
744	 0.29511006230816 
745	 0.295500283487632 
746	 0.295900002004512 
747	 0.29625548600239 
748	 0.296584419056762 
749	 0.296920871933581 
750	 0.297288003188443 
751	 0.297577060448551 
752	 0.297813259228502 
753	 0.298074046307296 
754	 0.298474614435797 
755	 0.29891336600902 
756	 0.299267162103984 
757	 0.299459928467962 
758	 0.299553756114521 
759	 0.299307843515955 
760	 0.298601680797338 
761	 0.297908863753746 
762	 0.29797403249911 
763	 0.298664333825545 
764	 0.299560058885331 
765	 0.300332985158593 
766	 0.301107633118762 
767	 0.301820221583946 
768	 0.302434408262742 
769	 0.302896939371032 
770	 0.303240310503928 
771	 0.303552414361296 
772	 0.303899544518972 
773	 0.304161652096003 
774	 0.304502444615455 
775	 0.304863166018457 
776	 0.305061076104751 
777	 0.305275468924418 
778	 0.305617638073506 
779	 0.305982319612527 
780	 0.305995895602765 
781	 0.306315072207236 
782	 0.306705898354355 
783	 0.306884632652108 
784	 0.307059072318332 
785	 0.307177986044742 
786	 0.307335272305849 
787	 0.307622309489009 
788	 0.30774874881359 
789	 0.308039966682144 
790	 0.308364524515457 
791	 0.308233769168033 
792	 0.308419299473674 
793	 0.308678022703329 
794	 0.308818624095668 
795	 0.309001443652797 
796	 0.30925721917103 
797	 0.30940468918005 
798	 0.309375397730508 
799	 0.309648277101897 
800	 0.309814005372528 
801	 0.309859471866146 
802	 0.30994981508404 
803	 0.310028620740364 
804	 0.310182561194944 
805	 0.310354356303555 
806	 0.31038688501846 
807	 0.310610570242105 
808	 0.310707091396766 
809	 0.31054354240644 
810	 0.310447013588372 
811	 0.310422669997864 
812	 0.310373214808733 
813	 0.310213517787857 
814	 0.310034616107717 
815	 0.309833934945436 
816	 0.309819197156714 
817	 0.31014267685237 
818	 0.310265730851297 
819	 0.31029726463662 
820	 0.310363308472264 
821	 0.310537857289416 
822	 0.310546234226385 
823	 0.31065412891563 
824	 0.310796896697631 
825	 0.310501048804407 
826	 0.310721701604175 
827	 0.311069402097224 
828	 0.311127509053265 
829	 0.310929403425148 
830	 0.310887984862189 
831	 0.310982483992867 
832	 0.31104300101245 
833	 0.310913350053068 
834	 0.31101067468728 
835	 0.311198075516735 
836	 0.311198079040346 
837	 0.311441099416109 
838	 0.311442070244101 
839	 0.31124365113362 
840	 0.311252024944851 
841	 0.311158203890963 
842	 0.311285262818516 
843	 0.311541542297336 
844	 0.311346979320662 
845	 0.311224132369994 
846	 0.311275933136305 
847	 0.311366152384422 
848	 0.311089365707128 
849	 0.311191240061234 
850	 0.311230454856584 
851	 0.310858160556421 
852	 0.310883478316004 
853	 0.310918504133391 
854	 0.310911305633485 
855	 0.310876554564431 
856	 0.310628972119607 
857	 0.310560754209792 
858	 0.310573318813106 
859	 0.310419560504955 
860	 0.310445492394586 
861	 0.310355648418878 
862	 0.310232298129574 
863	 0.310370880159249 
864	 0.310295461368663 
865	 0.310306586757803 
866	 0.310475526558323 
867	 0.31054383380521 
868	 0.310165473424912 
869	 0.309811076541745 
870	 0.309803175818451 
871	 0.310076797966351 
872	 0.309982615623987 
873	 0.309811150257024 
874	 0.309746268538107 
875	 0.309469548196975 
876	 0.309209105440079 
877	 0.309325784509955 
878	 0.309696582707267 
879	 0.309105700659007 
880	 0.309242732368022 
881	 0.309616699723517 
882	 0.309422129588328 
883	 0.308833004931637 
884	 0.308591573328416 
885	 0.308837649507063 
886	 0.309226139616217 
887	 0.308689128953453 
888	 0.308219822770599 
889	 0.308169964874309 
890	 0.308449076444831 
891	 0.308474556754306 
892	 0.308694611632931 
893	 0.308501185393584 
894	 0.307241439649653 
895	 0.307201689298945 
896	 0.307076449367348 
897	 0.306803321693265 
898	 0.307030520490021 
899	 0.306755688575882 
900	 0.306786234439782 
901	 0.307023998621842 
902	 0.306880031346544 
903	 0.306866681795007 
904	 0.306579466200216 
905	 0.306342345975379 
906	 0.306766597188402 
907	 0.30678171905883 
908	 0.305917399273317 
909	 0.305382525238129 
910	 0.306939484988277 
911	 0.306595057814979 
912	 0.305917409350344 
913	 0.306022685587788 
914	 0.306856648023523 
915	 0.306506318468475 
916	 0.306321212690842 
917	 0.306451425464492 
918	 0.306125027222686 
919	 0.306642109638832 
920	 0.307570152143934 
921	 0.307712289522215 
922	 0.306021486516281 
923	 0.305455152267777 
924	 0.305431270594546 
925	 0.305513607234301 
926	 0.305567238858786 
927	 0.304733597079351 
928	 0.304654007756661 
929	 0.304891110758954 
930	 0.303055329938846 
931	 0.302447565996102 
932	 0.301229863248118 
933	 0.29926976946449 
934	 0.298607040574039 
935	 0.299269709138939 
936	 0.299227598715491 
937	 0.298953212611444 
938	 0.300084581261263 
939	 0.302515690002233 
940	 0.3024649978663 
941	 0.300846636135841 
942	 0.300288782781682 
943	 0.299929444509825 
944	 0.299912932305126 
945	 0.301055866567905 
946	 0.303114505910252 
947	 0.300861346687498 
948	 0.301249339958794 
949	 0.30100472654848 
950	 0.297260806957775 
951	 0.299556108793922 
952	 0.301636918657375 
953	 0.301465968115013 
954	 0.299768143077047 
955	 0.300149304058593 
956	 0.300009411444491 
957	 0.3005044348864 
958	 0.302239273491296 
959	 0.303457279919031 
960	 0.303265992386682 
961	 0.302483285828411 
962	 0.302182443789589 
963	 0.303119872826185 
964	 0.306110171675577 
965	 0.306030120490497 
966	 0.303440256032836 
967	 0.303869570727495 
968	 0.304849756961294 
969	 0.3062169292014 
970	 0.307578051425431 
971	 0.308111542736557 
972	 0.305852889075709 
973	 0.305451391751003 
974	 0.30669092522912 
975	 0.307180370422783 
976	 0.308249864282823 
977	 0.308181539335567 
978	 0.307632414025224 
979	 0.307492338584524 
980	 0.306910846762842 
981	 0.307089007619395 
982	 0.30728218297884 
983	 0.306997529794851 
984	 0.30684478597706 
985	 0.305606481921224 
986	 0.305390616508593 
987	 0.306879710269913 
988	 0.308451569477926 
989	 0.307451863913223 
990	 0.307278947571915 
991	 0.307563361896142 
992	 0.306176104405181 
993	 0.306874238403906 
994	 0.307926308191123 
995	 0.30817872679921 
996	 0.30734330743806 
997	 0.306406226130042 
998	 0.305863740096269 
999	 0.306715186845922 
1000	 0.308123210002873 
1001	 0.306543089900185 
1002	 0.305993180703907 
1003	 0.305343377299365 
1004	 0.3042897134098 
1005	 0.304056575191429 
1006	 0.304267050558734 
1007	 0.304644275924978 
1008	 0.305606189068002 
1009	 0.30665737318718 
1010	 0.307058716729647 
1011	 0.306412988954867 
1012	 0.305633285386466 
1013	 0.304828475828262 
1014	 0.304372393139208 
1015	 0.304391479163465 
1016	 0.304594358125717 
1017	 0.30464417118137 
1018	 0.304559706576911 
1019	 0.304552860412271 
1020	 0.304623160972182 
1021	 0.304690967740526 
1022	 0.304847261309539 
1023	 0.30537766837422 
1024	 0.305486613294677 
1025	 0.304605348421702 
1026	 0.304431295741851 
1027	 0.30456437499653 
1028	 0.304318914982934 
1029	 0.304934406675955 
1030	 0.305183296927412 
1031	 0.305308292558763 
1032	 0.30545699910941 
1033	 0.304981262423718 
1034	 0.303824262475294 
1035	 0.303469740806543 
1036	 0.302578244802898 
1037	 0.302584998570302 
1038	 0.303608390856915 
1039	 0.304586704019526 
1040	 0.305283736008021 
1041	 0.305259234399739 
1042	 0.304649472156998 
1043	 0.304579438738466 
1044	 0.304641756129812 
1045	 0.304489511256079 
1046	 0.304447683291148 
1047	 0.304586226579396 
1048	 0.304567684116491 
1049	 0.304641180869799 
1050	 0.304464580031005 
1051	 0.304232481898028 
1052	 0.303837977586471 
1053	 0.303053537162567 
1054	 0.302249892338905 
1055	 0.30209780601064 
1056	 0.30182222106881 
1057	 0.301637127998747 
1058	 0.302172495375943 
1059	 0.302796351558341 
1060	 0.302975446281001 
1061	 0.303146339789029 
1062	 0.303299182188186 
1063	 0.30351532703011 
1064	 0.303696770246178 
1065	 0.303785506108684 
1066	 0.304226270986184 
1067	 0.304015841217744 
1068	 0.302844773664791 
1069	 0.302448975261869 
1070	 0.302711670356845 
1071	 0.302740117535525 
1072	 0.303463165491301 
1073	 0.303516206182508 
1074	 0.302786657043434 
1075	 0.302340398538328 
1076	 0.302122524718274 
1077	 0.302159628456943 
1078	 0.301959954800479 
1079	 0.301681295445582 
1080	 0.301805906821246 
1081	 0.302265674947346 
1082	 0.302097143258297 
1083	 0.301791544203766 
1084	 0.301634879954744 
1085	 0.300931275188911 
1086	 0.300617273561696 
1087	 0.300486809220316 
1088	 0.300934407768012 
1089	 0.30114909268191 
1090	 0.301362320052079 
1091	 0.301325048002559 
1092	 0.301345056484998 
1093	 0.301280039094974 
1094	 0.30063420189089 
1095	 0.300533073142562 
1096	 0.301250862095727 
1097	 0.30109596334919 
1098	 0.300273205416434 
1099	 0.300079426946035 
1100	 0.299981375118007 
1101	 0.299283308732222 
1102	 0.29990331242297 
1103	 0.301140759321485 
1104	 0.301074679112354 
1105	 0.300471271757294 
1106	 0.30029929515891 
1107	 0.299349469479023 
1108	 0.299047638955272 
1109	 0.299615499061334 
1110	 0.299608652834754 
1111	 0.299521336593898 
1112	 0.298998590284727 
1113	 0.297628641532908 
1114	 0.297035876221615 
1115	 0.29689666159985 
1116	 0.295944971151574 
1117	 0.294519979429091 
1118	 0.293710927772846 
1119	 0.293737285016203 
1120	 0.293192250033635 
1121	 0.293476248025616 
1122	 0.297360585755633 
1123	 0.297486547498059 
1124	 0.294753715719144 
1125	 0.293511501790245 
1126	 0.29122772363053 
1127	 0.290444273148457 
1128	 0.290511696773815 
1129	 0.29083651668503 
1130	 0.292420788707156 
1131	 0.292987515307182 
1132	 0.292895487239106 
1133	 0.293466228627097 
1134	 0.294910145793655 
1135	 0.294608971733697 
1136	 0.295024737956789 
1137	 0.296038913647969 
1138	 0.296081669763298 
1139	 0.295835163753541 
1140	 0.294947882981411 
1141	 0.29221311692595 
1142	 0.292471359579657 
1143	 0.294296250727023 
1144	 0.294639794236826 
1145	 0.296887420907602 
1146	 0.29719405242842 
1147	 0.294618443767141 
1148	 0.293462283264445 
1149	 0.292217876793488 
1150	 0.291908235724528 
1151	 0.29260872277656 
1152	 0.292632266643689 
1153	 0.293241448914751 
1154	 0.294551343447801 
1155	 0.295069097276321 
1156	 0.295388368349215 
1157	 0.295540932280655 
1158	 0.295116142749951 
1159	 0.295577324545328 
1160	 0.296622521303617 
1161	 0.296925617023656 
1162	 0.297470365286125 
1163	 0.297607864257959 
1164	 0.296586073452869 
1165	 0.296609019139273 
1166	 0.297373752626609 
1167	 0.297774287032664 
1168	 0.298697539915054 
1169	 0.29910412342947 
1170	 0.299045458427477 
1171	 0.298226154448113 
1172	 0.298196503191429 
1173	 0.298169621375514 
1174	 0.29825737707174 
1175	 0.298944228995731 
1176	 0.298978064704523 
1177	 0.298294785896432 
1178	 0.298353429871897 
1179	 0.298673212988398 
1180	 0.298892443069127 
1181	 0.299585445398888 
1182	 0.29993838623588 
1183	 0.2999277493418 
1184	 0.300016965991843 
1185	 0.300235226218627 
1186	 0.300236445307877 
1187	 0.299940025217102 
1188	 0.299898825645 
1189	 0.300060979524221 
1190	 0.300399983854192 
1191	 0.300477630356614 
1192	 0.300767508480239 
1193	 0.300729224208262 
1194	 0.300157359912536 
1195	 0.300114848796485 
1196	 0.300416530788686 
1197	 0.300413032469856 
1198	 0.300354996905354 
1199	 0.300364023558437 
1200	 0.300020423490233 
1201	 0.300130157601092 
1202	 0.300769663088627 
1203	 0.30121592477443 
1204	 0.301382629609835 
1205	 0.301272401335354 
1206	 0.301181952574137 
1207	 0.301368058937395 
1208	 0.301214344671824 
1209	 0.301090056299963 
1210	 0.301086356267413 
1211	 0.300699961394777 
1212	 0.300760682609972 
1213	 0.301335661026578 
1214	 0.301775830950362 
1215	 0.30244026945427 
1216	 0.302565219252888 
1217	 0.302530737850303 
1218	 0.302407613643526 
1219	 0.301509808466344 
1220	 0.301426290593113 
1221	 0.301829199104604 
1222	 0.302147921353305 
1223	 0.303096127484365 
1224	 0.303243492138969 
1225	 0.30250959727371 
1226	 0.30250340321004 
1227	 0.302462070170214 
1228	 0.302217543210109 
1229	 0.302353203073909 
1230	 0.303075735887401 
1231	 0.303080156668533 
1232	 0.302568955549949 
1233	 0.30260254641348 
1234	 0.302805179732501 
1235	 0.302922730956559 
1236	 0.30343201473457 
1237	 0.303534456567332 
1238	 0.303021447492955 
1239	 0.302900186498197 
1240	 0.30269619937582 
1241	 0.303069086944193 
1242	 0.303396771941619 
1243	 0.303472682132206 
1244	 0.303692434409435 
1245	 0.303345910471024 
1246	 0.302793457396249 
1247	 0.303444288899198 
1248	 0.303600733457361 
1249	 0.303551241971746 
1250	 0.303713169514884 
1251	 0.304319274809888 
1252	 0.304131546197079 
1253	 0.303374655585437 
1254	 0.303401558867292 
1255	 0.303354434506622 
1256	 0.303265625391057 
1257	 0.303982483558445 
1258	 0.30413639104506 
1259	 0.303807700626217 
1260	 0.303206758245737 
1261	 0.303480965613302 
1262	 0.303835343363511 
1263	 0.303827056089697 
1264	 0.303564787180274 
1265	 0.302963099538507 
1266	 0.302739196825366 
1267	 0.302905429932144 
1268	 0.303219297631061 
1269	 0.303245071051821 
1270	 0.303035616915141 
1271	 0.302798891507418 
1272	 0.302353625530969 
1273	 0.302398065049042 
1274	 0.302743060460028 
1275	 0.302891731096006 
1276	 0.303100223806009 
1277	 0.303241327793243 
1278	 0.30343783194812 
1279	 0.30342558490909 
1280	 0.303162904696166 
1281	 0.303210824856733 
1282	 0.303653248343532 
1283	 0.303582432232928 
1284	 0.303464993882674 
1285	 0.303608654275514 
1286	 0.303181918843748 
1287	 0.302741519025632 
1288	 0.302823414651511 
1289	 0.302878618759841 
1290	 0.302860475308338 
1291	 0.302549942735222 
1292	 0.302516003743855 
1293	 0.302715658351458 
1294	 0.302598606686817 
1295	 0.302253167192931 
1296	 0.302441701632572 
1297	 0.302813266362539 
1298	 0.302753549058456 
1299	 0.303083933223716 
1300	 0.303145980990485 
1301	 0.302764189353714 
1302	 0.301880834298387 
1303	 0.301930307687063 
1304	 0.302107562883798 
1305	 0.301884248557408 
1306	 0.302270966612333 
1307	 0.302770240512761 
1308	 0.302221322473029 
1309	 0.301520851246016 
1310	 0.301605259443099 
1311	 0.30151011299074 
1312	 0.301471449220807 
1313	 0.302071910187525 
1314	 0.302308935587503 
1315	 0.302233320858408 
1316	 0.302412912406488 
1317	 0.302277074878045 
1318	 0.30165754326128 
1319	 0.30127726508549 
1320	 0.300833366516904 
1321	 0.300601192083724 
1322	 0.300683695027817 
1323	 0.30061102229476 
1324	 0.300669124240966 
1325	 0.300329435502121 
1326	 0.299801333244333 
1327	 0.299863840498694 
1328	 0.29997078859663 
1329	 0.299346364879845 
1330	 0.299174255195478 
1331	 0.298913546942403 
1332	 0.297981139201793 
1333	 0.297255466981269 
1334	 0.296999238149586 
1335	 0.297017390323329 
1336	 0.298074224172966 
1337	 0.299393990023609 
1338	 0.298895681927958 
1339	 0.297271049293162 
1340	 0.295075083670928 
1341	 0.294675748722536 
1342	 0.294616364264368 
1343	 0.297062004175212 
1344	 0.297193461297068 
1345	 0.296288655655218 
1346	 0.295562267190971 
1347	 0.293061546074722 
1348	 0.291195800418497 
1349	 0.290549240149358 
1350	 0.28854026814902 
1351	 0.283883262356441 
1352	 0.277397125446906 
1353	 0.272821946408585 
1354	 0.273327441675147 
1355	 0.273839494755099 
1356	 0.292959214061056 
1357	 0.33374781372584 
1358	 0.352594150163486 
1359	 0.395977179117843 
1360	 0.50862319929042 
1361	 0.520153670757307 
1362	 0.422159829359353 
1363	 0.494177144314945 
1364	 0.532172155227703 
1365	 0.414404176485854 
1366	 0.36323443937549 
1367	 0.233478510585986 
1368	 2.59166837578917E-02 
1369	 0.0000015 
1370	 7.45501932943717E-02 
1371	 0.147242117734163 
1372	 0.202528724403217 
1373	 0.271479096852559 
1374	 0.849782717389743 
1375	 1.07395498856409 
1376	 0.562766369551218 
1377	 0.169377429335246 
1378	 9.49161643590703E-02 
1379	 0.100967251898283 
1380	 0.186850144961252 
1381	 0.536257086981124 
1382	 0.510401152754667 
1383	 0.235813906613661 
1384	 0.423410266320922 
1385	 0.292061416164745 
1386	 8.8152186814756E-03 
1387	 8.49690559354737E-02 
1388	 0.088407976906335 
1389	 0.0000015 
1390	 0.0000015 
1391	 0.251315650146656 
1392	 0.231682180853507 
1393	 0.270977750837932 
1394	 0.384852312550636 
1395	 0.278728407705097 
1396	 0.200790144995445 
1397	 0.312130654245719 
1398	 0.341468216468493 
1399	 0.30181320947583 
1400	 0.302161206227939 
1401	 0.338600906717029 
1402	 0.334690955296002 
1403	 0.318991374791062 
1404	 0.316850276172677 
1405	 0.325010918907593 
1406	 0.298890216708341 
1407	 0.261978708516408 
1408	 0.259194234318831 
1409	 0.277308393015195 
1410	 0.283062540612498 
1411	 0.278094872176197 
1412	 0.285000144467071 
1413	 0.283565246792899 
1414	 0.261621579767287 
1415	 0.252439281588216 
1416	 0.254233400501214 
1417	 0.246314348531475 
1418	 0.24241227121284 
1419	 0.255718205069473 
1420	 0.26014500510146 
1421	 0.255034757420942 
1422	 0.257924545752692 
1423	 0.256001870203738 
1424	 0.255706036648833 
1425	 0.264703283170236 
1426	 0.267287741762664 
1427	 0.267244129494186 
1428	 0.268345246882237 
1429	 0.264565986417948 
1430	 0.263303344665757 
1431	 0.263067043451878 
1432	 0.259204484919921 
1433	 0.258351827553557 
1434	 0.258073311019559 
1435	 0.260141688496066 
1436	 0.268019294765656 
1437	 0.270048949872643 
1438	 0.270427491907271 
1439	 0.2701485467895 
1440	 0.27063064942934 
1441	 0.269823724640441 
1442	 0.269083241660355 
1443	 0.270489804732384 
1444	 0.272915283379135 
1445	 0.271766220523022 
1446	 0.273532239448975 
1447	 0.277428595165194 
1448	 0.274792496524505 
1449	 0.272498177486422 
1450	 0.274111770988178 
1451	 0.273933030190152 
1452	 0.27458820638592 
1453	 0.277791156793541 
1454	 0.278938271518444 
1455	 0.278660085870576 
1456	 0.279232610384442 
1457	 0.280357798625319 
1458	 0.280300490122702 
1459	 0.280636102588986 
1460	 0.28336550428352 
1461	 0.283365469643871 
1462	 0.281883418708626 
1463	 0.2828491366132 
1464	 0.281404836751195 
1465	 0.280080508737398 
1466	 0.282758785410422 
1467	 0.284149531897367 
1468	 0.284932330633707 
1469	 0.286899297815633 
1470	 0.287145161579162 
1471	 0.286366261255509 
1472	 0.285856547847108 
1473	 0.284579562855203 
1474	 0.284495009884463 
1475	 0.285284348679584 
1476	 0.285893056511795 
1477	 0.286880918819041 
1478	 0.287778159902073 
1479	 0.288468828210062 
1480	 0.289159087430758 
1481	 0.290454080307017 
1482	 0.292100688198777 
1483	 0.291528442674128 
1484	 0.290647483018552 
1485	 0.291645978764028 
1486	 0.292077571947533 
1487	 0.293645414223107 
1488	 0.295371967185529 
1489	 0.294999024104992 
1490	 0.295007220708221 
1491	 0.2961652251322 
1492	 0.297693992746533 
1493	 0.298563861066197 
1494	 0.298710962150875 
1495	 0.298535169747628 
1496	 0.298167433321482 
1497	 0.29901711668531 
1498	 0.300163895963521 
1499	 0.300076786329808 
1500	 0.300222906184414 
1501	 0.300566194052659 
1502	 0.300553347792546 
1503	 0.300904926030698 
1504	 0.301520539702949 
1505	 0.301585936294809 
1506	 0.301311762132158 
1507	 0.301725807805224 
1508	 0.302211815063147 
1509	 0.302149089084543 
1510	 0.302108557096854 
1511	 0.302213283720884 
1512	 0.302011541361607 
1513	 0.30162970113581 
1514	 0.301956864133015 
1515	 0.302900638387736 
1516	 0.303897364563206 
1517	 0.304086782435016 
1518	 0.303547592060019 
1519	 0.303264100123015 
1520	 0.30268943111605 
1521	 0.302434270854221 
1522	 0.303171850079656 
1523	 0.30359233265169 
1524	 0.303636421792267 
1525	 0.303696109383227 
1526	 0.304078766236268 
1527	 0.304272010783785 
1528	 0.304229095430943 
1529	 0.304205867783385 
1530	 0.304091389519072 
1531	 0.303899029839695 
1532	 0.303579671904915 
1533	 0.303473259888246 
1534	 0.303638507236983 
1535	 0.303685195992329 
1536	 0.303779359318741 
1537	 0.303392919480631 
1538	 0.30322434948175 
1539	 0.303160125472486 
1540	 0.302926095204272 
1541	 0.302977454302857 
1542	 0.303286543377666 
1543	 0.303260529648593 
1544	 0.303297223180443 
1545	 0.303687558800611 
1546	 0.303736086295375 
1547	 0.303358255666772 
1548	 0.303108784344005 
1549	 0.302838445256385 
1550	 0.302745783538028 
1551	 0.303006311259065 
1552	 0.302911174364543 
1553	 0.302754518930848 
1554	 0.302778708386494 
1555	 0.30246196141114 
1556	 0.302276695328363 
1557	 0.302513388983817 
1558	 0.302628351637933 
1559	 0.302486524420595 
1560	 0.302086357897838 
1561	 0.301365099512291 
1562	 0.30077061714396 
1563	 0.301167594045472 
1564	 0.301917240265895 
1565	 0.301760804599407 
1566	 0.301512550804396 
1567	 0.301189126115541 
1568	 0.300690851343779 
1569	 0.301386290715811 
1570	 0.301499456078898 
1571	 0.300659347139223 
1572	 0.300827772108945 
1573	 0.300914910012371 
1574	 0.301070743873743 
1575	 0.301539009976926 
1576	 0.301353791713317 
1577	 0.30098591976347 
1578	 0.300691200082456 
1579	 0.300225164754557 
1580	 0.300004642331893 
1581	 0.300432147480784 
1582	 0.3004865053505 
1583	 0.300003737662108 
1584	 0.299654048675913 
1585	 0.298866837856759 
1586	 0.298815753662043 
1587	 0.300027189665208 
1588	 0.300407493354743 
1589	 0.300569797474701 
1590	 0.300267374908638 
1591	 0.299346538834062 
1592	 0.299709244307564 
1593	 0.299574035605823 
1594	 0.298903962374515 
1595	 0.299591243586575 
1596	 0.299645643597138 
1597	 0.2986085061195 
1598	 0.298791088117722 
1599	 0.299066391338282 
1600	 0.298343469279555 
1601	 0.298231094665349 
1602	 0.298275495729241 
1603	 0.297896230509609 
1604	 0.297925770285553 
1605	 0.298124054549587 
1606	 0.297807869703999 
1607	 0.297232535551482 
1608	 0.297110792357553 
1609	 0.297452465657229 
1610	 0.298193844630535 
1611	 0.298842096998548 
1612	 0.298535768312896 
1613	 0.298357720821931 
1614	 0.298180455027889 
1615	 0.297359020875464 
1616	 0.2975030395317 
1617	 0.297781471753047 
1618	 0.297438901380087 
1619	 0.297963731682876 
1620	 0.298891287696644 
1621	 0.299188511797792 
1622	 0.298784251310686 
1623	 0.298306047349102 
1624	 0.297632726674097 
1625	 0.29656678094497 
1626	 0.296998703960653 
1627	 0.297741257447116 
1628	 0.297199951084962 
1629	 0.29758079777473 
1630	 0.298260461587841 
1631	 0.297907200842058 
1632	 0.297716862795221 
1633	 0.297516405661101 
1634	 0.296908668131082 
1635	 0.296709535368153 
1636	 0.297130103839739 
1637	 0.29759838572705 
1638	 0.29744985227994 
1639	 0.297140550596967 
1640	 0.296881112364931 
1641	 0.296381146059484 
1642	 0.296135178944789 
1643	 0.295954676122376 
1644	 0.296318234375175 
1645	 0.296804218807095 
1646	 0.296533672903595 
1647	 0.296330141263017 
1648	 0.296011818529272 
1649	 0.295869956411445 
1650	 0.29611690943469 
1651	 0.295824891764224 
1652	 0.29527675398747 
1653	 0.295356292738855 
1654	 0.296162446346734 
1655	 0.297024184889009 
1656	 0.297222609318037 
1657	 0.296703755845638 
1658	 0.296123791028592 
1659	 0.295929383728916 
1660	 0.296548217510023 
1661	 0.297109052419264 
1662	 0.296628540825078 
1663	 0.296530214220307 
1664	 0.296309859079166 
1665	 0.2954196513363 
1666	 0.295217654397151 
1667	 0.295135731388567 
1668	 0.294667645199548 
1669	 0.294889433035256 
1670	 0.295365457723817 
1671	 0.294847183621789 
1672	 0.294002518479971 
1673	 0.294041539672352 
1674	 0.294868565474395 
1675	 0.295293266293865 
1676	 0.295590335890993 
1677	 0.295564854300322 
1678	 0.294611588492674 
1679	 0.294183326290395 
1680	 0.294796764938353 
1681	 0.295147415132675 
1682	 0.295058587218237 
1683	 0.294750353756249 
1684	 0.293606639794496 
1685	 0.293303875483834 
1686	 0.293464141826813 
1687	 0.292940192493988 
1688	 0.293009323292821 
1689	 0.292282525134612 
1690	 0.291738264628577 
1691	 0.29270015356039 
1692	 0.293671496697879 
1693	 0.294498167979792 
1694	 0.293819925472674 
1695	 0.292449187005871 
1696	 0.291975133482444 
1697	 0.291634273376283 
1698	 0.292655849079935 
1699	 0.293633697501239 
1700	 0.293309177606063 
1701	 0.293475445938581 
1702	 0.29262727562068 
1703	 0.291779357675982 
1704	 0.290872565440393 
1705	 0.29063370752756 
1706	 0.292396282841534 
1707	 0.292475995627142 
1708	 0.291416656703715 
1709	 0.291202449200156 
1710	 0.289998884509148 
1711	 0.28946663477367 
1712	 0.29049468466862 
1713	 0.29078245933998 
1714	 0.290805061732978 
1715	 0.290794734490204 
1716	 0.290222873798802 
1717	 0.290165867180559 
1718	 0.290400482573286 
1719	 0.290449095657592 
1720	 0.290952725115647 
1721	 0.291149211656316 
1722	 0.291222696042245 
1723	 0.29076585396497 
1724	 0.289634153506005 
1725	 0.289129812074956 
1726	 0.288295796912831 
1727	 0.287876568000613 
1728	 0.288241388869323 
1729	 0.288378935060327 
1730	 0.288249556913505 
1731	 0.288706037996293 
1732	 0.289886410655099 
1733	 0.290223413157245 
1734	 0.291142142653852 
1735	 0.290263068482982 
1736	 0.286977429746648 
1737	 0.286472693038432 
1738	 0.286530078552324 
1739	 0.286004118268012 
1740	 0.287094951265353 
1741	 0.286999211002959 
1742	 0.284830623230562 
1743	 0.284926379744716 
1744	 0.286722005850554 
1745	 0.286938043819106 
1746	 0.287214270001329 
1747	 0.287009264733142 
1748	 0.285857759541183 
1749	 0.285347972962183 
1750	 0.285067084697287 
1751	 0.283763012709487 
1752	 0.283450676681886 
1753	 0.283962827913241 
1754	 0.284563750354902 
1755	 0.285301410608984 
1756	 0.285483953110123 
1757	 0.283926159263235 
1758	 0.283465884525682 
1759	 0.284070424393544 
1760	 0.283980711684935 
1761	 0.284171296062845 
1762	 0.283886212358976 
1763	 0.282135293702418 
1764	 0.28157122339332 
1765	 0.281963963660177 
1766	 0.281759648756376 
1767	 0.281985984844982 
1768	 0.281827658685327 
1769	 0.280657820335906 
1770	 0.280193691518092 
1771	 0.280410112879163 
1772	 0.280053798937963 
1773	 0.279091187835334 
1774	 0.279188122899442 
1775	 0.280299917028894 
1776	 0.279927582474755 
1777	 0.279431063075063 
1778	 0.278951998247899 
1779	 0.276221939887889 
1780	 0.276113354487655 
1781	 0.278727540195385 
1782	 0.279570127948811 
1783	 0.280942078293879 
1784	 0.280831598498017 
1785	 0.278485236904748 
1786	 0.278398452736353 
1787	 0.279231519106896 
1788	 0.278810015350808 
1789	 0.278869490009632 
1790	 0.27854168031916 
1791	 0.276632549698665 
1792	 0.275124649840836 
1793	 0.275616557918893 
1794	 0.273119214109553 
1795	 0.269568846164832 
1796	 0.26998997151654 
1797	 0.26987024421221 
1798	 0.267273530111932 
1799	 0.268248923373043 
1800	 0.270191650505963 
1801	 0.272476301075017 
1802	 0.284317649437314 
1803	 0.289518508696594 
1804	 0.28635121164703 
1805	 0.284749191402092 
1806	 0.280040627808438 
1807	 0.273371230851568 
1808	 0.260833518036147 
1809	 0.249882001173729 
1810	 0.229822009373199 
1811	 0.226492708946635 
1812	 0.242909930172988 
1813	 0.253929758426311 
1814	 0.289316188279887 
1815	 0.310751368854192 
1816	 0.328982249283415 
1817	 0.326130795955168 
1818	 0.272158603351591 
1819	 0.274626731642718 
1820	 0.293954998660845 
1821	 0.331078324738674 
1822	 0.367931011786855 
1823	 0.495895577669955 
1824	 0.497881550399336 
1825	 0.499463266698604 
1826	 0.632206934322078 
1827	 0.451376025349169 
1828	 0.365957103742591 
1829	 0.439281165526369 
1830	 0.487397123872142 
1831	 0.0000015 
1832	 0.0000015 
1833	 0.0000015 
1834	 0.0000015 
1835	 0.0000015 
1836	 0.0000015 
1837	 0.0000015 
1838	 0.0000015 
1839	 0.0000015 
1840	 0.0000015 
1841	 0.0000015 
1842	 0.0000015 
1843	 0.0000015 
1844	 0.0000015 
1845	 0.0000015 
1846	 0.0000015 
1847	 0.117464158125366 
1848	 0.441008642876166 
1849	 0.46669551622271 
1850	 0.104520966003889 
1851	 1.52033102742797E-02 
1852	 1.15123130535774E-02 
1853	 0.0000015 
1854	 0.0000015 
1855	 0.0000015 
1856	 0.0000015 
1857	 0.0000015 
1858	 0.0000015 
1859	 1.95148217624626 
1860	 1.89608849003091 
1861	 0.0000015 
1862	 0.0000015 
1863	 0.0000015 
1864	 0.0000015 
1865	 0.0000015 
1866	 0.0000015 
1867	 0.0000015 
1868	 0.0000015 
1869	 0.0000015 
1870	 0.0000015 
1871	 0.0000015 
1872	 0.0000015 
1873	 0.0000015 
1874	 0.0000015 
1875	 0.0000015 
1876	 0.0000015 
1877	 0.0000015 
1878	 0.0000015 
1879	 0.0000015 
1880	 0.255745793005121 
1881	 0.262593281244001 
1882	 0.184067238155955 
1883	 0.0000015 
1884	 0.157117310575893 
1885	 0.386427767102567 
1886	 0.0000015 
1887	 0.0000015 
1888	 0.0000015 
1889	 0.0000015 
1890	 0.0000015 
1891	 0.0000015 
1892	 0.0000015 
1893	 0.0000015 
1894	 0.0000015 
1895	 0.0000015 
1896	 0.0000015 
1897	 0.0000015 
1898	 0.0000015 
1899	 0.0000015 
1900	 0.0000015 
1901	 0.0000015 
1902	 0.0000015 
1903	 0.0000015 
1904	 0.0000015 
1905	 0.0000015 
1906	 0.0000015 
1907	 7.13845485485132E-02 
1908	 0.0000015 
1909	 1.99393771605706 
1910	 1.33989804622505 
1911	 1.19283330580138 
1912	 0.0000015 
1913	 0.0000015 
1914	 0.0000015 
1915	 0.0000015 
1916	 0.0000015 
1917	 0.0000015 
1918	 0.0000015 
1919	 0.139322551733875 
1920	 0.12243198213649 
1921	 0.0000015 
1922	 6.54569512017921E-02 
1923	 5.15676570049613E-02 
1924	 0.0000015 
1925	 0.0000015 
1926	 0.0000015 
1927	 0.0000015 
1928	 0.0000015 
1929	 0.0000015 
1930	 8.98727495235948E-02 
1931	 0.139300902846688 
1932	 6.41067938940235E-02 
1933	 1.56440613293302E-04 
1934	 4.31658269533422E-02 
1935	 8.24799288653197E-02 
1936	 0.121685974864372 
1937	 0.187132608266363 
1938	 0.195206681177626 
1939	 0.171157096801989 
1940	 0.19919168339267 
1941	 0.172953230050354 
1942	 0.146412440672796 
1943	 0.1810006729986 
1944	 0.188169530326308 
1945	 0.166488478917992 
1946	 0.205100147883535 
1947	 0.215615087865626 
1948	 0.175747449000537 
1949	 0.167088654818584 
1950	 0.183426646476026 
1951	 0.194903969886144 
1952	 0.176993369599164 
1953	 0.226731327614197 
1954	 0.269004460284477 
1955	 0.246962400444174 
1956	 0.245102353276179 
1957	 0.257785755397458 
1958	 0.255252145612571 
1959	 0.247930244022241 
1960	 0.250242076403044 
1961	 0.254322407783374 
1962	 0.247711997902515 
1963	 0.238678728819491 
1964	 0.235992166661315 
1965	 0.230768192413899 
1966	 0.223537099959359 
1967	 0.233360443228238 
1968	 0.24770078598288 
1969	 0.248236397164027 
1970	 0.24643081826139 
1971	 0.247252314006454 
1972	 0.241043936924603 
1973	 0.239704357808902 
1974	 0.245654623346511 
1975	 0.24942486827346 
1976	 0.253271033992336 
1977	 0.252841962237791 
1978	 0.251785583135381 
1979	 0.249858272102434 
1980	 0.252034407570645 
1981	 0.258543159228151 
1982	 0.261098319344885 
1983	 0.260468529323197 
1984	 0.261614367457368 
1985	 0.257678692363873 
1986	 0.255827806576148 
1987	 0.258941383355555 
1988	 0.259842175834216 
1989	 0.257870967509369 
1990	 0.254235833890623 
1991	 0.256781438739494 
1992	 0.258790126234551 
1993	 0.259318750253385 
1994	 0.262130927456059 
1995	 0.263649988596859 
1996	 0.265010791327101 
1997	 0.264705932517675 
1998	 0.259424067067125 
1999	 0.259196840671318 
2000	 0.265962010474231 
2001	 0.265392136983906 
2002	 0.257446712165368 
2003	 0.26249160950562 
2004	 0.277263912104304 
2005	 0.271323289520204 
2006	 0.269112424316824 
2007	 0.277305860246621 
2008	 0.273053970994194 
2009	 0.263437770089299 
2010	 0.259793466330788 
2011	 0.270048475548133 
2012	 0.267909920289924 
2013	 0.253501487570969 
2014	 0.250694564046642 
2015	 0.251358217059367 
2016	 0.253179859256482 
2017	 0.258649431157525 
2018	 0.263497821905611 
2019	 0.269460233633024 
2020	 0.270821101183966 
2021	 0.267487809573791 
2022	 0.267630549515983 
2023	 0.270384322870831 
2024	 0.274063519735857 
2025	 0.275032188235533 
2026	 0.280042593241315 
2027	 0.280338497620498 
2028	 0.273869550714453 
2029	 0.272645787652322 
2030	 0.272671788762773 
2031	 0.273101277903078 
2032	 0.276430004745645 
2033	 0.280915107854043 
2034	 0.281340238836127 
2035	 0.28130792082964 
2036	 0.281703866092986 
2037	 0.279755500354598 
2038	 0.278487904064333 
2039	 0.278062763051045 
2040	 0.278195585268654 
2041	 0.278116599420703 
2042	 0.278289516311461 
2043	 0.279886269228786 
2044	 0.280836564995301 
2045	 0.28131673278531 
2046	 0.28076089769314 
2047	 0.278607321753898 
2048	 0.277383192234961 
2049	 0.275776397181068 
2050	 0.274723421812653 
2051	 0.274354621050933 
2052	 0.276966485532226 
2053	 0.277063137340854 
2054	 0.273447606960323 
2055	 0.275086591622118 
2056	 0.28384692093879 
2057	 0.284308344058101 
2058	 0.28099518434929 
2059	 0.279824893094509 
2060	 0.273147180789888 
2061	 0.270052918626805 
2062	 0.26882609530401 
2063	 0.274590591780458 
2064	 0.276141945235607 
2065	 0.2742509942305 
2066	 0.276743008933014 
2067	 0.284024492152715 
2068	 0.282756118820159 
2069	 0.277890695002329 
2070	 0.277139868272097 
2071	 0.272479076558716 
2072	 0.271762057381764 
2073	 0.278447547916382 
2074	 0.278790034302868 
2075	 0.274202577250514 
2076	 0.273262649685526 
2077	 0.272941373306443 
2078	 0.27177446817123 
2079	 0.273122049131703 
2080	 0.274849985179205 
2081	 0.274705791257562 
2082	 0.27635188084342 
2083	 0.275320818526627 
2084	 0.271887498678842 
2085	 0.271473199283647 
2086	 0.27086090586141 
2087	 0.271032629597557 
2088	 0.274860917229394 
2089	 0.275256045934121 
2090	 0.272742295593728 
2091	 0.272602217263557 
2092	 0.272134072571391 
2093	 0.272555834783215 
2094	 0.276384161358718 
2095	 0.276255951835702 
2096	 0.273774550647792 
2097	 0.275538939842833 
2098	 0.277198531787444 
2099	 0.275866838292749 
2100	 0.27466195373884 
2101	 0.27242095814908 
2102	 0.272869380745137 
2103	 0.274834872710161 
2104	 0.273525628354663 
2105	 0.27233374670705 
2106	 0.27171746156512 
2107	 0.266966201614724 
2108	 0.265631104938788 
2109	 0.268748524474797 
2110	 0.270086883722135 
2111	 0.271835532772856 
2112	 0.272147093182694 
2113	 0.272959410735874 
2114	 0.270745781900517 
2115	 0.2681839204425 
2116	 0.266239109865475 
2117	 0.266850110264753 
2118	 0.269121502373214 
2119	 0.269663977614077 
2120	 0.270224485628985 
2121	 0.270866594042947 
2122	 0.270959233592488 
2123	 0.27131559828929 
2124	 0.273488274446111 
2125	 0.272579731531677 
2126	 0.268184985830508 
2127	 0.266799331875181 
2128	 0.265215365251815 
2129	 0.264469199512388 
2130	 0.266536434522212 
2131	 0.267336271920905 
2132	 0.266350368141937 
2133	 0.267354029440038 
2134	 0.269826147012013 
2135	 0.269076388067265 
2136	 0.268141436910428 
2137	 0.267780033813282 
2138	 0.268220449338339 
2139	 0.269248859440099 
2140	 0.26936085903269 
2141	 0.269406098798647 
2142	 0.270434043773808 
2143	 0.271531721498868 
2144	 0.271161026485217 
2145	 0.273024992702188 
2146	 0.271696691341904 
2147	 0.264115745311202 
2148	 0.262312872063569 
2149	 0.262714096405229 
2150	 0.262361211700873 
2151	 0.26671495256939 
2152	 0.267449239798359 
2153	 0.265865570851249 
2154	 0.261913908634259 
2155	 0.262034615351289 
2156	 0.260614193793122 
2157	 0.261197295149752 
2158	 0.264157693898722 
2159	 0.264341562553192 
2160	 0.263376291321551 
2161	 0.262020847884305 
2162	 0.258353517641239 
2163	 0.258461567132677 
2164	 0.260041580323657 
2165	 0.259817284422754 
2166	 0.261199941832779 
2167	 0.262202384724182 
2168	 0.262189020392286 
2169	 0.261420522168745 
2170	 0.258932002224808 
2171	 0.259908670438686 
2172	 0.26327642319745 
2173	 0.263318393365672 
2174	 0.265886388437899 
2175	 0.26619240865433 
2176	 0.262326096982504 
2177	 0.256808740124911 
2178	 0.254636306161908 
2179	 0.253078464256986 
2180	 0.249629424851993 
2181	 0.246914036761693 
2182	 0.247409490944842 
2183	 0.251434502279644 
2184	 0.251226854755632 
2185	 0.251275708083914 
2186	 0.252048381198343 
2187	 0.249643109484826 
2188	 0.249495756318755 
2189	 0.254407121440947 
2190	 0.254039086852464 
2191	 0.248491642649576 
2192	 0.248384997603939 
2193	 0.249206518931126 
2194	 0.249609300181242 
2195	 0.25465006980725 
2196	 0.255792270874526 
2197	 0.252134500781917 
2198	 0.251623474458776 
2199	 0.252637811045284 
2200	 0.252322088333299 
2201	 0.252664250403657 
2202	 0.25269531212838 
2203	 0.249906755731022 
2204	 0.249105198819644 
2205	 0.24790291737177 
2206	 0.245115619927626 
2207	 0.245177350741095 
2208	 0.246764670930683 
2209	 0.246726247075324 
2210	 0.24736067799569 
2211	 0.248421368406157 
2212	 0.248529733323836 
2213	 0.248865525934862 
2214	 0.251818249322709 
2215	 0.251284536679464 
2216	 0.246912329795539 
2217	 0.245977172729648 
2218	 0.245106848320611 
2219	 0.245163812496643 
2220	 0.248092974876125 
2221	 0.249359304702832 
2222	 0.25060638664541 
2223	 0.249889746538024 
2224	 0.24602314921207 
2225	 0.245328883517761 
2226	 0.246328691976518 
2227	 0.245993816897449 
2228	 0.24576438154122 
2229	 0.247527646582665 
2230	 0.249704945924131 
2231	 0.247018094313535 
2232	 0.246232840500822 
2233	 0.246673526306555 
2234	 0.244569197437979 
2235	 0.243115454497439 
2236	 0.242808671001388 
2237	 0.242452303591171 
2238	 0.241979446410412 
2239	 0.239926478996715 
2240	 0.241758312814856 
2241	 0.247038587853798 
2242	 0.24813812551066 
2243	 0.250462378256339 
2244	 0.250290852225579 
2245	 0.244467900968946 
2246	 0.243922407112729 
2247	 0.245771018351901 
2248	 0.246161788517356 
2249	 0.248382576402086 
2250	 0.248770570786171 
2251	 0.248109219651507 
2252	 0.247556175921529 
2253	 0.245398719004961 
2254	 0.244043742305342 
2255	 0.243472675329024 
2256	 0.242042764065414 
2257	 0.238983104484593 
2258	 0.239199063426633 
2259	 0.242756753068517 
2260	 0.242486172973004 
2261	 0.241442889680669 
2262	 0.241830262960541 
2263	 0.241642163719945 
2264	 0.238070817768968 
2265	 0.239512009581023 
2266	 0.238228156330799 
2267	 0.233708414258783 
2268	 0.232470098549384 
2269	 0.23142030290229 
2270	 0.23547490086319 
2271	 0.241254048485193 
2272	 0.242499939120389 
2273	 0.242725713598302 
2274	 0.243736281963633 
2275	 0.241310970640159 
2276	 0.234203981355342 
2277	 0.233687759410655 
2278	 0.234429396825073 
2279	 0.233581597489557 
2280	 0.236441489187151 
2281	 0.236293059831143 
2282	 0.232653339993834 
2283	 0.230223342551142 
2284	 0.229139080583251 
2285	 0.227427600507717 
2286	 0.222017890581972 
2287	 0.22132523652354 
2288	 0.223978305579605 
2289	 0.225134280712562 
2290	 0.229583889816933 
2291	 0.230447796368297 
2292	 0.228071684675301 
2293	 0.227443131228577 
2294	 0.227110036329261 
2295	 0.225397138324 
2296	 0.222771552198178 
2297	 0.221712692634708 
2298	 0.219712885434811 
2299	 0.218005803896755 
2300	 0.218662448245997 
2301	 0.218453772587606 
2302	 0.216889311247698 
2303	 0.216602359025629 
2304	 0.216065607667208 
2305	 0.216612402521474 
2306	 0.219762178121223 
2307	 0.219772588620713 
2308	 0.21708530708998 
2309	 0.21801604674927 
2310	 0.221149680902052 
2311	 0.225245080802159 
2312	 0.22983116087696 
2313	 0.231695770921119 
2314	 0.226889779224386 
2315	 0.223485598439975 
2316	 0.21983743451586 
2317	 0.216296512994167 
2318	 0.217400399042175 
2319	 0.215879973422776 
2320	 0.213675112735203 
2321	 0.214532829698024 
2322	 0.212472084441064 
2323	 0.210520119756609 
2324	 0.219379505222582 
2325	 0.228903916098611 
2326	 0.232663132873048 
2327	 0.235451167727167 
2328	 0.234196876969711 
2329	 0.231656039678114 
2330	 0.234891883840613 
2331	 0.239020339386009 
2332	 0.235815086751459 
2333	 0.235754141618786 
2334	 0.232696575704401 
2335	 0.224919140824964 
2336	 0.220935261472391 
2337	 0.215673609028372 
2338	 0.216062409634281 
2339	 0.224924564618372 
2340	 0.226330903829305 
2341	 0.225227119299806 
2342	 0.227521463509059 
2343	 0.227754465495435 
2344	 0.227589592673525 
2345	 0.232986454319157 
2346	 0.234878073847463 
2347	 0.230650219391421 
2348	 0.228611550548588 
2349	 0.22921738622162 
2350	 0.227250533550454 
2351	 0.223538298752159 
2352	 0.217702967501254 
2353	 0.207255106584393 
2354	 0.207037728583853 
2355	 0.209929747685475 
2356	 0.210280700580318 
2357	 0.216353346297797 
2358	 0.220072684103417 
2359	 0.220927496895538 
2360	 0.219564676308179 
2361	 0.218183742336257 
2362	 0.219451234797275 
2363	 0.218127454432198 
2364	 0.217085756352716 
2365	 0.218757472600126 
2366	 0.223778073750596 
2367	 0.232949013168212 
2368	 0.232081889220925 
2369	 0.233452815405662 
2370	 0.22963292764285 
2371	 0.200331252684388 
2372	 0.196450737765736 
2373	 0.214434533330738 
2374	 0.215483843710373 
2375	 0.218847477482495 
2376	 0.220365823347208 
2377	 0.20843063414402 
2378	 0.208651489979797 
2379	 0.227191736825507 
2380	 0.226572706913217 
2381	 0.215867195799953 
2382	 0.211739520250617 
2383	 0.193242464226213 
2384	 0.185589083811057 
2385	 0.19556545618886 
2386	 0.192321216009997 
2387	 0.182451930522746 
2388	 0.180273004236912 
2389	 0.175800148182372 
2390	 0.176037720908791 
2391	 0.180651359681001 
2392	 0.18324391520322 
2393	 0.189545863686121 
2394	 0.199270799369352 
2395	 0.210698842847809 
2396	 0.216771542902851 
2397	 0.231879953392895 
2398	 0.223728500627247 
2399	 0.180598012301833 
2400	 0.182444495994818 
2401	 0.212034988378928 
2402	 0.206270896200238 
2403	 0.205986596706648 
2404	 0.212067076233064 
2405	 0.189043409434846 
2406	 0.172812286569799 
2407	 0.180736280598925 
2408	 0.175389280562517 
2409	 0.14123982834053 
2410	 0.14600153508484 
2411	 0.188582197858443 
2412	 0.193854480056136 
2413	 0.193555571760044 
2414	 0.19366491121062 
2415	 0.167781736345337 
2416	 0.16350139984303 
2417	 0.187894073874597 
2418	 0.183849847782002 
2419	 0.148982436322608 
2420	 0.157513092859816 
2421	 0.183524235737191 
2422	 0.188351717443465 
2423	 0.219718450539361 
2424	 0.224883318137574 
2425	 0.197441983173966 
2426	 0.186525071001668 
2427	 0.174439541229457 
2428	 0.164718369409153 
2429	 0.155134159567603 
2430	 0.151804777287507 
2431	 0.156082781982341 
2432	 0.156504738274487 
2433	 0.161912451144873 
2434	 0.155928019883867 
2435	 0.133941123334307 
2436	 0.12897685241973 
2437	 0.131482382194366 
2438	 0.137723061641846 
2439	 0.168249082843147 
2440	 0.167754507309144 
2441	 0.139595998775507 
2442	 0.126349261525526 
2443	 9.43510604566892E-02 
2444	 0.123710981463363 
2445	 0.144784122312416 
2446	 0.153932238036144 
2447	 0.189332414254333 
2448	 0.213056431225383 
2449	 0.177777091064169 
2450	 0.177022876357752 
2451	 0.183855834992033 
2452	 0.127816719444435 
2453	 0.115729979005872 
2454	 0.140395855402446 
2455	 0.130838847823382 
2456	 9.59575490383447E-02 
2457	 8.35214060785325E-02 
2458	 5.69596660889326E-02 
2459	 3.73571047805934E-02 
2460	 0.106552169078451 
2461	 0.175465890755398 
2462	 0.195526475842132 
2463	 0.21560428033315 
2464	 0.198397859637108 
2465	 0.173465047930852 
2466	 0.163448351472508 
2467	 0.111488259800033 
2468	 0.1236652297263 
2469	 0.176012313741027 
2470	 0.201599853185839 
2471	 0.21809617853404 
2472	 0.173961316525032 
2473	 0.100296257581945 
2474	 9.35678477097039E-02 
2475	 0.119773708374447 
2476	 0.100292501134565 
2477	 2.33834105882956E-02 
2478	 0.0000015 
2479	 0.0000015 
2480	 0.0000015 
2481	 4.07209310678287E-04 
2482	 5.41250870076761E-02 
2483	 0.107063816857153 
2484	 0.399892716246589 
2485	 0.339283579880136 
2486	 0.0000015 
2487	 0.0000015 
2488	 0.0000015 
2489	 0.0000015 
2490	 0.10703470654416 
2491	 0.540809338056169 
2492	 0.689738826154631 
2493	 0.730316077958275 
2494	 0.624561205724884 
2495	 0.609301775732702 
2496	 0.546080817278004 
2497	 0.646821050599224 
2498	 0.626869697817226 
2499	 0.501283127789468 
2500	 0.538815551149759 
